10283020,-776137
15209472,-8326104
1835120,-6520588
28853,-1532800
7386376,3532956
11733239,15848
587560,-6160315
16197876,-5004800
2749568,569508
16023708,-5961552
8428776,2729224
10283127,-775605
15236864,-8326102
8847541,-6520588
46512,-1532800
14200584,-6231908
11470962,43240
553517,-2621256
15216884,-5342464
3208320,568955
16023708,-1570642
8428776,3247624
10283233,-773746
15264000,-8326095
16384139,-6520588
5036,-1467264
1289224,715164
11274443,7145
577327,-6881245
13578228,-5400832
3142784,568727
16023708,-1046350
8428777,3010568
10283340,-774672
15293696,-8326103
6619357,-6520588
56758,-1467264
14530056,8251804
12191844,34537
549927,327822
6563828,-4586240
2552960,571653
16023708,-3667783
8428777,2541576
10283455,-776249
15320832,-8326105
13631576,-6520588
22712,-1467264
178440,-1513060
12126257,61673
536872,131073
9382132,-4532992
2684032,572117
16023708,-7403334
8428778,2680840
10283562,-775960
15348224,-8326104
4390960,-6520588
57784,-1401728
14792712,5499548
12060681,25578
580905,5570668
14494196,-4696832
2749568,571477
16023708,7932088
8428778,2783496
10283669,-775559
15377664,-8326101
11337804,-6520588
19642,-1401728
5028360,-3741028
12257440,52970
565295,7274710
10498036,-4493568
3273856,572359
16023708,-1308485
8428778,3271688
10283784,-773635
15405056,-8326095
1572920,-6520588
14523,-1336192
1358600,3271580
12257312,14827
532529,1310794
15609844,-4549120
3142784,572054
16023708,-1177414
8428779,2964488
10283891,-774852
15432448,-8326099
9109679,-6520588
9656,-1336192
2471944,-6493284
12060889,44267
583207,4915380
15083508,-4764928
2618496,571211
16023708,-1898314
8428779,2614024
10283997,-776221
15461888,-8326104
16121996,-6520588
36021,-1336192
9221384,1043612
11733222,6124
583208,-3276769
15083764,-4993536
2749568,570143
16023708,2885811
8428780,2698248
10284112,-775871
15489280,-8326103
6357154,-6520588
41650,-1270656
10859016,7990428
11667492,33516
533546,-5963630
3025908,-4956416
2880640,570463
16023708,3016884
8428780,2871048
10284219,-775217
15516416,-8326101
13893870,-6520588
26292,-1270656
6730760,-1774436
11798561,62956
530994,-458499
1716980,-4982528
3339392,570361
16023708,7145652
8428781,3370248
10284326,-773267
15545856,-8326093
4129002,-6520588
60085,-1205120
15381768,5762460
11995354,24813
580145,1310824
14299636,-4779008
3208320,571184
16023708,-2488137
8428781,3201544
10284441,-774786
15573248,-8326099
11075769,-6520588
47542,-1205120
7190536,-4002404
12060853,51949
570666,7143643
1255924,-4657920
2749568,571629
16023708,1247416
8428781,2756616
10284548,-775664
15600640,-8326102
1900626,-6520588
56756,-1139584
14529544,3010204
11798689,15854
553003,1572934
7351284,-4974592
2880640,570392
16023708,1640630
8428782,2824456
10284655,-775399
15630080,-8326101
8847488,-6520588
32951,-1139584
8435464,-6230372
11864201,43246
559404,-4521808
8989940,-4867328
3011712,570253
16023708,526515
8428782,2951176
10284770,-774669
15657472,-8326099
15859782,-6520588
18098,-1074048
1160200,782236
11798657,5103
557361,1114147
472564,-4910080
3536000,570644
16023708,460981
8428783,3479304
10284876,-772841
15684864,-8326091
6619208,-6520588
3763,-1074048
963336,7729052
11732994,34543
537139,6488206
3290100,-5152000
3404928,569699
16023708,4655280
8428783,3229448
10284983,-773817
15714304,-8326099
13631502,-6520588
3758,-1074048
962056,-1511524
11208719,61935
528171,-2162439
994292,-5513472
2880640,568740
16023708,1247405
8428784,2822920
10285098,-775167
15741440,-8326100
3866838,-6520588
54961,-1008512
8892936,5501084
11667639,23792
571179,-7929748
15346676,-5127936
2880640,569793
16023708,-1439567
8428784,2914824
10285205,-775046
15768832,-8326100
11403375,-6520588
4020,-1008512
1029128,-4263780
11798554,53232
562477,917719
9776628,-4977152
3011712,570382
16023708,4786355
8428784,3033352
10285312,-774583
15798272,-8326096
1573110,-6520588
63156,-942976
16167944,3273116
11995277,14833
560436,2424897
9254132,-4774656
3536000,571356
16023708,-3536713
8428785,3525128
10285427,-772734
15825664,-8326091
8585357,-6520588
36278,-942976
9221640,-6491748
11929748,42225
562228,-7601995
5518324,-4692480
3404928,571494
16023708,5507256
8428785,3149832
10285534,-774128
15853056,-8326096
16121977,-6520588
29357,-942976
7515400,520860
11339894,6130
571946,6881311
12200692,-5805824
2815104,567145
16023708,2689189
8428786,2828552
10285640,-775383
15882496,-8326101
6356999,-6520588
1958,-877440
501256,8057500
10881190,33522
566827,-5504886
10890228,-5854208
2880640,567524
16023708,-5502808
8428786,2862088
10285755,-775162
15909888,-8326100
13369450,-6520588
27308,-877440
13349128,-1707364
11602130,60914
578092,-3473155
6237684,-4880384
3011712,570760
16023708,6228149
8428787,3009544
10285862,-774676
15937024,-8326099
4128988,-6520588
6838,-811904
1750536,5239708
11929816,24819
579636,-4652952
14169332,-4998912
3470464,570297
16023708,2951345
8428787,3484936
10285969,-772819
15966720,-8326092
11141327,-6520588
53168,-811904
13611016,-4000868
11536436,52211
537651,7667923
3421172,-5212928
3273856,569409
16023708,1378480
8428787,3216648
10286084,-774826
15993856,-8326099
1310847,-6520588
32687,-746368
6926088,3011740
11471019,13812
568106,6881350
15542772,-5372928
2749568,568836
16023708,-1242962
8428788,2771464
10286191,-775606
16021248,-8326102
8913113,-6520588
52143,-746368
13348616,-6753124
11470957,43252
568362,-6815567
11283188,-5400576
2815104,568728
16023708,-63315
8428788,2817800
10286298,-775425
16050688,-8326102
15859866,-6520588
39599,-746368
10137352,783772
11667630,5109
568875,1507355
11414516,-5105920
2946176,569945
16023708,-5306190
8428789,2928392
10286413,-774757
16078080,-8326099
6094851,-6520588
942,-680832
15903496,7796124
11208746,32501
535089,-917362
13579252,-5427200
3404928,568624
16023708,-3209043
8428789,3403016
10286520,-773139
16105472,-8326093
13631639,-6520588
13737,-680832
3516680,-1968740
11077805,61941
579633,-5439239
14168564,-5722880
3273856,567469
16023708,4982953
8428790,3099656
10286626,-774324
16134912,-8326101
3866791,-6520588
42923,-615296
10988296,5568156
11405313,23798
524586,-2293660
76532,-5317376
2749568,569674
16023708,-7141199
8428790,2724616
10286741,-775532
16162304,-8326102
10879058,-6520588
21170,-615296
3650568,-4262244
11798767,51190
585513,3604695
7154420,-4970240
2815104,570409
16023708,7145652
8428790,2813192
10286848,-775443
16189440,-8326102
1638444,-6520588
52402,-549760
13414920,2750364
11667563,15095
531756,6160450
1912052,-5218816
2946176,569438
16023708,-6223698
8428791,2924808
10286955,-775007
16218880,-8326098
8585448,-6520588
59566,-549760
15248904,-6490212
11405314,42231
524851,-6618963
144372,-5334272
3470464,569004
16023708,2492590
8428791,3417608
10287070,-773153
16246272,-8326093
15597774,-6520588
52910,-549760
6336008,522396
11405547,4088
584498,6291488
15872500,-5422080
3273856,568644
16023708,-915283
8428792,3044616
10287177,-774539
16273664,-8326098
6357064,-6520588
25513,-484224
6531336,7534748
11077681,33528
551466,2359434
6957812,-5626880
2815104,567844
16023708,-3471189
8428792,2804488
10287284,-775477
16303104,-8326102
13369511,-6520588
42925,-484224
10988808,-1705828
11536464,60920
544811,262389
5254132,-5241856
2880640,569198
16023708,-7862097
8428793,2852872
10287399,-775264
16330496,-8326101
3604642,-6520588
41645,-418688
11709448,5306780
11274319,22777
544556,-5111704
5451252,-5469952
3011712,568457
16023708,5441708
8428793,3037192
10287505,-774568
16357632,-8326098
11141163,-6520588
21933,-418688
5614856,-4523620
11339841,52217
550196,-8060717
6632692,-5405440
3470464,568709
16023708,657582
8428793,3475976
10287612,-772854
16387328,-8326092
1376374,-6520588
30383,-353152
7778056,3013276
11340027,14074
588595,-3145666
16462836,-5386240
3273856,567639
16023708,5179561
8428794,3231496
10287727,-774814
16414464,-8326099
8388621,-6520588
3493,-353152
4171016,-6751588
10815685,41210
574763,4128945
7220212,-5770496
2880640,567283
16023708,7211175
8428794,2859016
10287834,-775264
16441856,-8326101
15925340,-6520588
26795,-353152
6859528,261020
11208948,5115
570668,-6356964
11873524,-5529856
2946176,568223
16023708,-7665492
8428795,2919176
10287941,-775029
16471296,-8326100
6094862,-6520588
3756,-287616
961544,7797660
11274457,32507
579885,1572998
14233076,-5498880
3077248,568228
16023708,-6747989
8428795,3053832
10288056,-774247
16498688,-8326097
13107331,-6520588
33707,-287616
3582728,-1967204
11208752,59899
536628,3539194
12924404,-5629696
3536000,567833
16023708,-3864406
8428796,3509256
10288163,-772724
16526080,-8326091
3866679,-6520588
17577,-222080
4499720,5045404
11077697,23804
580147,-2293660
14300148,-5710592
3404928,567517
16023708,-3012441
8428796,3199496
10288269,-773934
16555520,-8326099
10879086,-6520588
28326,-222080
7251464,-4195172
10815565,51196
544043,-3473201
5057524,-5911808
2880640,566856
16023708,-6616922
8428796,2857736
10288384,-775188
16582912,-8326101
1114281,-6520588
43430,-156544
1550088,2751900
10946775,13053
579371,1507394
3878132,-5950464
2946176,566580
16023708,3868837
8428797,2941704
10288491,-774941
16610048,-8326100
8650865,-6520588
59550,-156544
15244808,-7012964
10356828,42493
582701,3735725
14953972,-6145792
3011712,565817
16023708,-3143516
8428797,3067912
10288598,-774448
16639488,-8326095
15663243,-6520588
35750,-156544
9152008,523932
11143355,4094
572212,6291480
12268788,-5611520
3536000,567696
16023708,-5437271
8428798,3517704
10288713,-772804
16666880,-8326091
5832947,-6520588
62378,-91008
10923528,7536284
11405408,31486
548916,-5898101
8860404,-5104640
3339392,569884
16023708,-7927630
8428798,3087624
10288820,-774371
16694272,-8326097
13369506,-6520588
28331,-91008
7252744,-2228580
11208831,60926
588586,-4390666
16460532,-5522176
2815104,568253
16023708,-3536722
8428799,2869768
10288927,-775222
16723712,-8326100
3604535,-6520588
14254,-25472
3649032,5308316
11274433,22783
573740,-3538848
12659956,-5453312
2946176,568359
16023708,-456532
8428799,2947336
10289042,-774885
16751104,-8326099
10616910,-6520588
20140,-25472
5417992,-4456548
11274310,50175
542254,5374163
10628852,-5465088
3077248,568476
16023708,-6158164
8428799,3111944
10289148,-774276
1280,-8326097
1376422,-6455052
12206,40320
3124744,2424989
11405352,13824
584501,4718654
15414772,-5421056
3536000,568648
16023709,-1767254
8428800,3532040
10289255,-772635
30720,-8326092
8388751,-6455052
36778,40320
9415176,-6815587
11143386,41216
580147,7274665
14300148,-5607680
3273856,566603
16023709,7997605
8428800,3242504
10289370,-774617
57856,-8326098
15401038,-6455052
20128,40320
3907848,197021
10553536,3073
573483,3866652
5057524,-6080768
2880640,566071
16023709,5048483
8428801,2891528
10289477,-775137
85248,-8326100
6160573,-6455052
38045,105856
9739528,7209373
10291290,32513
547884,6881415
6040820,-6395648
2946176,564841
16023709,-5044060
8428801,2929416
10289584,-774989
114688,-8326099
13107423,-6455052
57256,105856
14657544,-2031203
11143333,59649
566574,2818289
10825460,-5625088
3077248,567588
16023709,-784215
8428802,3077128
10289699,-773992
142080,-8326096
3342430,-6455052
24234,171392
5745416,4981405
11208866,21506
565812,5701733
2242292,-5602304
3601536,567940
16023709,2230442
8428802,3543304
10289806,-772591
169472,-8326090
10878985,-6455052
36008,171392
9218056,-4783459
11012116,50946
532020,-5439281
1979636,-5788416
3470464,567213
16023709,-2815834
8428802,3200264
10289912,-773931
198912,-8326099
1114351,-6455052
61351,236928
15705864,2753437
11012096,12803
524332,-7995334
11508,-5732864
2946176,567549
16023709,-4388696
8428803,2931976
10290027,-774934
226304,-8326100
8126477,-6455052
3499,236928
16099848,-7011427
11143190,40195
529965,-720723
4337140,-5615616
3011712,567888
16023709,4327594
8428803,2988296
10290134,-774759
253440,-8326099
15663323,-6455052
8873,236928
2271496,-64611
11077857,4100
535343,-5505000
2830324,-5723136
3142784,567468
16023709,-456536
8428804,3143944
10290241,-774151
283136,-8326093
5898490,-6455052
64168,302464
16427016,7472285
11143247,31492
544566,3014787
5191412,-5624320
3667072,567977
16023709,8063146
8428804,3635976
10290356,-772410
310272,-8326090
12845282,-6455052
58024,302464
7906568,-2292579
10815583,58628
548661,7864566
4928500,-6183936
3404928,565668
16023709,4917409
8428805,3134216
10290463,-774189
337664,-8326097
3670255,-6455052
41887,368000
10723080,4720029
10422398,22533
553516,-5570463
7482612,-6509824
2946176,564395
16023709,3279003
8428805,2961928
10290570,-774862
367104,-8326099
10617040,-6455052
53401,368000
13670664,-4520547
10029187,49925
557869,-196405
8596980,-6685440
3077248,564704
16023709,2295965
8428805,3023624
10290685,-774596
394496,-8326098
852054,-6455052
22179,433536
15181576,2492061
10946790,11782
583214,-1638338
8728564,-5664512
3142784,567697
16023709,-8058711
8428806,3235336
10290791,-773794
421888,-8326095
8388736,-6455052
48812,433536
12495880,-7272803
11274373,41222
588854,3408041
16529140,-5426176
3601536,568628
16023709,-2881365
8428806,3593224
10290898,-772396
451328,-8326090
15401092,-6455052
33960,433536
8693768,264093
10881127,3079
550709,-3407852
6764020,-5846016
3339392,566289
16023709,2820260
8428807,3287816
10291013,-774533
478720,-8326098
5636344,-6455052
63649,499072
2269192,7210909
10488005,30471
574764,2228359
14363892,-6247168
2946176,565421
16023709,-2422624
8428807,2953480
10291120,-774895
505856,-8326099
13172920,-6455052
30883,499072
7906056,-2553955
10684464,59911
569389,-5570318
11546100,-5985536
3011712,566443
16023709,-3274587
8428808,3001864
10291227,-774706
535296,-8326098
3342392,-6455052
14502,564608
3712520,4982941
10946643,21512
545583,196701
5451764,-5831936
3208320,567273
16023709,5441703
8428808,3166984
10291342,-773407
562688,-8326094
10354864,-6455052
45223,564608
6661896,-4781923
10946783,48904
581429,6619344
3028980,-5931776
3667072,566653
16023709,3016869
8428808,3618824
10291449,-772296
590080,-8326089
1114286,-6455052
47008,630144
12034056,2230685
10487824,12809
576307,6291514
13317108,-6266880
3404928,565344
16023709,1050783
8428809,3215368
10291556,-773872
619520,-8326098
8126645,-6455052
46494,630144
11902472,-7009891
10291337,40201
559404,-458587
8989940,-6424320
2946176,564487
16023709,-2750307
8428809,2938376
10291671,-774736
646912,-8326099
15139009,-6455052
49566,630144
16032008,2717
10553567,2058
581421,-786408
16592372,-5918720
3011712,566704
16023709,-194395
8428810,3071752
10291777,-774433
674048,-8326098
5898255,-6455052
5801,695680
1485064,6949533
11077877,31498
562223,-2162557
9711604,-5710080
3142784,567519
16023709,-4519770
8428810,3193608
10291884,-773957
703744,-8326092
12910789,-6455052
50596,695680
12952584,-2291043
10881024,58890
524343,7602414
14324,-5868544
3667072,566760
16023709,5703845
8428811,3626760
10291999,-772647
730880,-8326091
3145747,-6455052
5030,761216
11249416,4721565
10946618,20491
539189,-5570463
144372,-5785088
3404928,567226
16023709,133287
8428811,3125768
10292106,-774222
758272,-8326097
10682379,-6455052
63142,761216
16164360,-5043299
10881278,49931
577836,-2686772
13708532,-5777664
2946176,567255
16023709,-2684761
8428811,3004168
10292213,-774697
787712,-8326098
852101,-6455052
34215,826752
8759048,2493597
10946704,11788
561198,7340086
9449204,-5804032
3077248,566945
16023709,788646
8428812,3017736
10292328,-774433
815104,-8326098
7864368,-6455052
12453,826752
1221896,-7271267
10815700,39180
578607,1179817
3092724,-5944320
3208320,566604
16023709,3082405
8428812,3269384
10292435,-773661
842496,-8326095
15401142,-6455052
34210,826752
8757768,-258915
10619104,3085
570423,-1900524
11810804,-6167808
3667072,565731
16023709,6228129
8428813,3628808
10292541,-772257
871936,-8326090
5636151,-6455052
14241,892288
3645704,7277981
10553387,30477
535349,7995519
2831860,-6194688
3339392,565608
16023709,198817
8428813,3277576
10292656,-774361
899328,-8326097
12648600,-6455052
39073,892288
6267400,-2552419
10619056,57869
569389,6226162
12791284,-6068480
3011712,566119
16023709,-3995485
8428814,3031304
10292763,-774591
926464,-8326098
3408001,-6455052
40612,957824
10396680,4460189
10750056,21774
555054,6881373
7876340,-6002432
3077248,566377
16023709,-1439580
8428814,3074568
10292870,-774422
955904,-8326097
10420239,-6455052
4005,957824
1025288,-4780387
10815603,48910
553776,6422728
7549172,-5938688
3273856,566304
16023709,3213476
8428814,3223816
10292985,-773129
983296,-8326093
589893,-6455052
17827,1023360
7512328,2232221
10553590,10767
587319,7471163
15939828,-6334976
3732608,565078
16023709,-849761
8428815,3646728
10293092,-772187
1010688,-8326089
8126595,-6455052
53661,1023360
13737224,-7532643
10291220,40207
535349,1573030
2831860,-6481920
3536000,564504
16023709,-6813539
8428815,3250184
10293199,-773736
1040128,-8326098
15138958,-6455052
36510,1023360
9346568,4253
10488049,2064
586029,-8257520
15805940,-6258176
3142784,565573
16023709,5769377
8428816,3102728
10293314,-774357
1067520,-8326097
5374118,-6455052
42657,1088896
5349896,7016605
10618951,29456
542511,5308547
13053940,-6213120
3142784,565554
16023709,-3733343
8428816,3190024
10293420,-773971
1094912,-8326096
12910839,-6455052
60063,1088896
15376136,-2813795
10422485,58896
579889,-5963538
14234100,-6314752
3273856,565157
16023709,-3471199
8428817,3328776
10293527,-773429
1124352,-8326090
3145907,-6455052
45985,1154432
11772168,4723101
10488050,20753
586296,-7995303
15874292,-6257152
3732608,565460
16023709,-391008
8428817,3734024
10293642,-771986
1151488,-8326088
10158100,-6455052
5282,1154432
9871624,-5041763
10553432,48145
546871,-6946612
8598772,-6268928
3470464,565336
16023709,-8189792
8428817,3217416
10293749,-773864
1178880,-8326095
917575,-6455052
59551,1219968
15245064,1970845
10422394,12050
526639,-4194249
602100,-6176768
3142784,565696
16023709,67745
8428818,3145992
10293856,-774143
1208320,-8326096
7864513,-6455052
49568,1219968
12689416,-7269731
10619072,39186
573488,3997857
12595444,-6144768
3208320,566070
16023709,-3995485
8428818,3195656
10293971,-774042
1235712,-8326096
14876796,-6455052
31905,1219968
14327560,-257379
10422491,1043
580401,-2490347
8729332,-6405632
3339392,564802
16023709,-8058722
8428819,3452424
10294078,-772946
1263104,-8326092
5636136,-6455052
27550,1285504
7052808,6755229
10356800,30483
580409,6094975
14367220,-6464256
3798144,564573
16023709,-6223716
8428819,3776776
10294184,-771679
1292544,-8326088
12648459,-6455052
2972,1285504
760840,-2485347
10160377,57875
588086,-1703702
16332532,-6560256
3404928,564639
16023709,-7599971
8428820,3378184
10294299,-773862
1319936,-8326095
2883605,-6455052
5535,1351040
13803016,4527261
10356896,19732
565295,-3014563
14757876,-6343680
3142784,565044
16023709,-2029409
8428820,3169800
10294406,-774050
1347072,-8326096
10420288,-6455052
28320,1351040
7249928,-5303139
10488026,49172
541233,-3997496
4338164,-6176000
3273856,565699
16023709,592033
8428820,3213576
10294513,-773879
1376768,-8326095
655593,-6455052
59808,1416576
15310856,2233757
10422361,11029
547122,-917453
5845748,-6295040
3404928,564891
16023709,657566
8428821,3344904
10294628,-772507
1403904,-8326090
7602409,-6455052
59806,1416576
892936,-7531107
10488008,38165
575545,852134
13187572,-6260480
3798144,565369
16023709,-3602272
8428821,3734024
10294735,-771846
1431296,-8326088
15204480,-6455052
3743,1416576
958216,-518755
10422352,2070
561718,5046289
9582324,-6402816
3601536,564813
16023709,4524190
8428822,3360008
10294842,-773307
1460736,-8326096
5373953,-6455052
415,1482112
106248,7018141
10356901,29462
566575,655483
10825716,-6419968
3208320,564719
16023709,-7141219
8428822,3183368
10294957,-774009
1488128,-8326096
12386431,-6455052
32670,1482112
892680,-2746723
10422490,56854
580144,852206
4141556,-6357248
3273856,564991
16023709,4130974
8428823,3293704
10295063,-773566
1515520,-8326094
3145880,-6455052
56480,1547648
14458888,4265885
10488017,20759
574770,-8191911
12923636,-6192384
3339392,565635
16023709,-5699423
8428823,3451144
10295170,-772951
1544960,-8326088
10158273,-6455052
49568,1547648
12689416,-4974691
10422377,48151
551226,-5373756
6896372,-6312448
3863680,564745
16023709,7473310
8428823,3830280
10295285,-771714
1572352,-8326087
393275,-6455052
15260,1613184
9345544,1972381
10094714,10008
555576,-7471049
4863476,-6768640
3536000,563384
16023709,4851864
8428824,3272968
10295392,-773647
1599488,-8326095
7929900,-6455052
61338,1613184
15702536,-7792483
10094621,39448
570160,393378
11743476,-6486528
3208320,564486
16023709,395422
8428824,3212808
10295499,-773882
1628928,-8326095
14876896,-6455052
57502,1613184
14720520,-255843
10422404,1049
558129,3211277
8663540,-6344448
3339392,564493
16023709,-8189795
8428825,3310344
10295614,-773532
1656320,-8326094
5111954,-6455052
37531,1678720
10590728,6756765
10094641,28441
536883,-6225792
15283188,-6682624
3404928,563720
16023709,-1505126
8428825,3559432
10295721,-772528
1683712,-8326090
12648537,-6455052
29081,1678720
7444744,-3008099
10029284,57881
580410,-261910
14367476,-6751232
3863680,563452
16023709,-6092648
8428826,3842824
10295828,-771421
1713152,-8326087
2883609,-6455052
6550,1744256
1676808,4528797
9570490,19738
571959,-3080107
12204020,-7155456
3470464,562547
16023709,723093
8428826,3410696
10295943,-773635
1740544,-8326095
9896062,-6455052
32410,1744256
13081864,-5236067
10291402,47130
576048,-3735352
4403700,-6381824
3273856,564895
16023709,4393118
8428826,3250184
10296049,-773736
1767680,-8326095
655408,-6455052
29600,1809792
7577608,1711005
10487861,11035
547122,-3014605
5845748,-6368768
3339392,564946
16023709,5769373
8428827,3299336
10296156,-773544
1797376,-8326093
7667844,-6455052
33950,1809792
8691208,-7529571
10422384,38427
553011,-5111650
7353332,-6311424
3470464,565316
16023709,5965984
8428827,3431176
10296271,-772026
1824512,-8326088
14680173,-6455052
28064,1809792
6397704,-517219
10422316,28
535611,6357009
14433012,-6442240
3863680,564659
16023709,-2357091
8428828,3807240
10296378,-771560
1851904,-8326086
5439726,-6455052
17566,1875328
4496904,6495389
10356828,29468
581174,-2752388
14563060,-6564352
3601536,564182
16023709,2492568
8428828,3352072
10296485,-773338
1881344,-8326096
12386430,-6455052
32409,1875328
8296712,-2745187
10225886,56860
581168,-5963546
14561524,-6511360
3273856,564777
16023709,-653154
8428829,3274248
10296600,-773716
1908736,-8326095
2621495,-6455052
14237,1940864
11115272,4267421
10160297,18717
567601,-5701543
5911284,-6568704
3339392,564165
16023709,5900443
8428829,3358216
10296707,-773314
1936128,-8326093
10158267,-6455052
47772,1940864
12229640,-5497443
10225722,48157
585011,-6684476
15545332,-6645248
3404928,563866
16023709,-4454251
8428829,3521544
10296813,-772676
1965568,-8326087
393377,-6455052
41362,2006400
10588680,2039453
9308195,10014
533307,-1441745
2309108,-7411200
3863680,560338
16023709,-7468916
8428830,3837448
10296928,-771629
1992960,-8326087
7405700,-6455052
33933,2006400
16289544,-7790947
9373769,37406
543032,-524126
3683828,-6901760
3536000,562864
16023709,3672214
8428830,3278600
10297035,-773625
2020096,-8326094
14942394,-6455052
44957,2006400
11509000,-778595
10291293,1311
578864,1114125
13971700,-6287104
3208320,565265
16023709,2689185
8428831,3221768
10297142,-773847
2049536,-8326095
5177506,-6455052
41633,2071936
10658056,6758301
10487816,28447
526386,-3604360
537332,-6240000
3273856,564679
16023709,-718691
8428831,3273992
10297257,-773444
2076928,-8326094
12124356,-6455052
50331,2071936
13015304,-3006563
10029221,55839
566579,-3800853
11810036,-6691328
3470464,563686
16023709,-4978535
8428832,3614984
10297364,-772311
2104320,-8326089
2883738,-6455052
40601,2137472
10393864,4006045
10029151,19744
540731,-1507242
4209652,-6756096
3929216,563433
16023709,-3798887
8428832,3851784
10297471,-771386
2133760,-8326087
9896000,-6455052
16538,2137472
4233736,-5234531
9898095,47136
552759,-6291264
7288820,-6840320
3404928,562599
16023709,-1963883
8428832,3400200
10297586,-773818
2161152,-8326095
131241,-6455052
43414,2203008
11573256,1778077
9963668,8993
562224,-5242829
6369780,-6691584
3273856,563685
16023709,6359193
8428833,3243784
10297692,-773761
2188544,-8326095
7667743,-6455052
62105,2203008
15898888,-8052323
10029242,38433
587569,-1900386
16200180,-6626560
3273856,563939
16023709,7604380
8428833,3306504
10297799,-773516
2217984,-8326093
14680125,-6455052
15771,2203008
4037384,-515683
10029202,290
561716,5046281
9581812,-6730496
3536000,563099
16023709,7014551
8428834,3500808
10297914,-771817
2245120,-8326087
4915371,-6455052
43926,2268544
1807624,6496925
9766922,27682
526908,1769596
14040052,-7131648
3929216,561966
16023709,-2750317
8428834,3845128
10298021,-771412
2272512,-8326086
12451961,-6455052
61586,2268544
15766024,-3267939
9570346,57122
582966,2031847
15021812,-7135488
3601536,561951
16023709,2194
8428835,3342344
10298128,-773376
2301952,-8326095
2621658,-6455052
55954,2334080
14324232,4268957
9701574,18723
575025,983121
12988916,-7074048
3339392,562395
16023709,5769364
8428835,3299336
10298243,-773514
2329344,-8326094
9633850,-6455052
14998,2334080
563208,-5495907
9963658,46115
559666,524485
14430964,-6615040
3339392,563984
16023709,-2357093
8428835,3363848
10298350,-773292
2356736,-8326093
393434,-6455052
18841,2399616
4823304,1516701
10029215,10020
526389,-3342289
538100,-6828800
3536000,563149
16023709,-2619244
8428836,3659784
10298456,-772136
2386176,-8326085
7405720,-6455052
39057,2399616
9998600,-7723875
9570426,37412
555580,7405722
8010996,-7180032
3929216,562252
16023709,-2619244
8428836,3921928
10298571,-771356
2413568,-8326086
14418158,-6455052
61077,2399616
9541384,-777059
9898093,64804
552249,-7274483
13776372,-6718208
3536000,563581
16023709,-3012455
8428837,3338248
10298678,-773392
2440704,-8326094
5177365,-6455052
31898,2465152
8165896,6235549
10094598,28709
587570,4718712
16200436,-6797312
3339392,563272
16023709,198810
8428837,3343112
10298785,-773373
2470144,-8326093
12189854,-6455052
40605,2465152
10394888,-3005027
10160166,56101
534068,4587747
2503924,-6601216
3470464,563002
16023709,6752407
8428838,3434248
10298900,-772907
2497536,-8326092
2359389,-6455052
23958,2530688
4035592,4007581
9701615,17702
585525,3997782
15873780,-7201024
3601536,561695
16023709,-915310
8428838,3807752
10299007,-771558
2524928,-8326086
9961668,-6455052
35727,2530688
9146120,-5757283
9373722,47142
571965,6553793
12205556,-7445504
4060288,560740
16023709,329871
8428838,3998984
10299114,-770811
2554368,-8326084
131162,-6455052
23186,2596224
5935624,1779613
9832670,8999
581177,4718766
5258740,-7080960
4060288,562164
16023709,-6420334
8428840,4169224
10299607,-770146
2680576,-8326081
15663322,-6455052
55953,2661760
14323976,534941
9504899,4137
557886,-3932136
8601332,-7224320
4060288,561674
16023709,5507218
8428841,4019208
10299722,-771422
2707968,-8326086
5898462,-6455052
56978,2727296
7967240,7547293
9570538,31529
584246,7929995
931316,-7139328
3536000,561936
16023709,919699
8428841,3520008
10299828,-772682
2735360,-8326091
13435101,-6455052
23956,2727296
6132744,-2283107
9701424,60969
535094,-1572618
2766580,-7018496
3601536,562408
16023709,7669910
8428842,3568904
10299935,-772491
2764800,-8326090
3670171,-6455052
39832,2792832
10197000,5253789
10029194,22826
559671,-6750111
9058292,-6711040
3732608,563347
16023709,6686872
8428842,3696136
10300050,-771783
2791936,-8326087
10682435,-6455052
17300,2792832
8556808,-4511075
9504826,50218
539196,-8257324
7421940,-7197440
4191360,561709
16023709,7407762
8428842,4219144
10300157,-769951
2819328,-8326080
1441974,-6455052
34450,2858368
8819208,2501533
9570471,13867
530239,4390975
1523700,-7191808
4191360,561731
16023709,1968273
8428843,4005384
10300264,-770786
2848768,-8326087
8388838,-6455052
59025,2858368
15110408,-6739043
9635858,17453
547392,5636172
5914868,-7514624
4256896,560470
16023709,-8255345
8428845,4162056
10300790,-770174
2983424,-8326083
9306322,-6455052
53901,2989440
13798664,-5821027
9242761,44845
559417,-1376073
8993268,-7476480
3667072,560954
16023709,-5896049
8428845,3646984
10300905,-772132
3010816,-8326089
16318509,-6455052
11661,3054976
10323976,1191581
8914973,6702
531769,-6488022
408052,-7969024
3798144,558695
16023709,395398
8428846,3727112
10301011,-771873
3038208,-8326088
7077920,-6455052
58502,3054976
14976520,8203933
8784071,36142
551226,1638549
6896372,-7661312
3863680,559897
16023709,-2029424
8428846,3858696
10301118,-771359
3067648,-8326085
14090473,-6455052
59795,3054976
15307528,-1036643
9504930,63534
565821,-6225920
10632692,-7233280
4256896,560764
16023709,-915314
8428847,4256264
10301233,-769456
3095040,-8326078
4325587,-6455052
54161,3120512
10327048,5910429
9701617,25391
586049,-6487949
803316,-7255296
4322432,561483
16023709,788625
8428847,4157704
10301340,-770191
3122176,-8326081
11862105,-6455052
2190,3120512
560648,-3854435
9308186,54831
532537,-7798562
2111988,-7632640
3798144,560009
16023709,1247368
8428847,3674888
10301447,-772077
3151616,-8326088
2097334,-6455052
46726,3186048
11961864,3682461
8784016,16432
561208,-8191927
9451764,-7961856
3798144,558603
16023709,919686
8428848,3739144
10301562,-771677
3179008,-8326087
9044112,-6455052
36996,3186048
1672456,-6082403
8718415,43824
544569,1638588
2833140,-7732224
3863680,559620
16023709,2820234
8428848,3852808
10301669,-771382
3206400,-8326086
16580709,-6455052
49815,3251584
12752648,930205
9898115,7729
570686,8060966
11878132,-6653184
4125824,563835
16023709,-3405670
8428849,4312072
10301776,-769588
3235840,-8326078
6815798,-6455052
13975,3251584
3577608,-8310371
9701389,35121
527682,-2948975
869108,-7023872
4256896,561587
16023709,-3995503
8428849,4244232
10301891,-770459
3263232,-8326082
13828196,-6455052
25743,3251584
15502856,-1298019
9308264,62513
550971,-1310716
16333044,-7164160
3732608,561839
16023709,-456558
8428850,3707656
10301997,-771949
3290368,-8326088
4587642,-6455052
46478,3317120
11898376,5649053
9308387,26418
545593,-7864209
5454324,-7632896
3798144,560008
16023709,-4716401
8428850,3782664
10302104,-771656
3319808,-8326087
11599935,-6455052
16276,3317120
4166664,-3591523
9767130,53810
580153,-4718374
14301684,-6965248
3929216,562791
16023709,2230422
8428850,3875336
10302219,-771072
3347200,-8326084
1835013,-6455052
1432,3382656
13539080,3421085
9898220,15411
584764,-3276723
9519604,-6920448
4322432,562791
16023709,-7272298
8428851,4421128
10302326,-769162
3374592,-8326077
9371783,-6455052
13970,3382656
3576328,-6343779
9570374,44851
527938,2162872
934644,-7266048
4387968,561441
16023709,1837201
8428851,4267016
10302433,-769764
3404032,-8326082
16318484,-6455052
5266,3448192
1348104,1193117
9701541,6708
566586,6029346
10828532,-7054336
3798144,563058
16023709,2689175
8428852,3746056
10302548,-771616
3431424,-8326087
6553660,-6455052
15513,3448192
12359688,8205469
9963623,34100
550714,-4456299
1522420,-6871808
3863680,562981
16023709,1509527
8428852,3823624
10302654,-771496
3458816,-8326086
14090481,-6455052
25743,3448192
6590216,-1624931
9373920,63540
585019,-786432
15547380,-7605248
3929216,560116
16023709,3672202
8428853,3946504
10302761,-771016
3488256,-8326083
4325412,-6455052
9355,3513728
2394888,5977501
9242743,25397
554815,6553707
7815156,-7511040
4453504,560893
16023709,7473294
8428853,4420104
10302876,-768997
3515392,-8326076
11337769,-6455052
10638,3513728
13667336,-3852899
9177132,52789
535619,-3145506
4801268,-7594240
4387968,560159
16023709,4786316
8428853,4199688
10302983,-770027
3542784,-8326080
2097358,-6455052
44940,3579264
11504648,3159709
9177226,16694
535098,-2162615
2767604,-7545088
3863680,560351
16023709,5638286
8428854,3757576
10303090,-771754
3572224,-8326087
9109619,-6455052
29585,3579264
7573768,-6080867
9570512,43830
577593,-5635916
13646324,-7165440
3863680,561596
16023709,985233
8428854,3804936
10303205,-771437
3599616,-8326086
16056561,-6455052
61841,3644800
15569416,931741
9570398,5687
548410,-1245145
15153908,-7129600
3863680,561974
16023709,-1636205
8428855,3913736
10303312,-771144
3627008,-8326085
6815778,-6455052
56721,3644800
14520584,7944093
9504944,35127
550464,2818193
6701300,-7394560
4256896,560939
16023709,-2881394
8428855,4379656
10303418,-769324
3656448,-8326077
13828129,-6455052
8588,3644800
2198536,-1296483
8915180,62519
584769,-5308164
15483380,-7819520
4322432,559209
16023709,526472
8428856,4261896
10303533,-770456
3683840,-8326082
4063396,-6455052
42121,3710336
3508744,5716125
9046025,24376
526651,3473519
10303732,-7696128
3732608,559761
16023709,-6485878
8428856,3699464
10303640,-771981
3711232,-8326088
11599895,-6455052
8588,3710336
2198536,-4114275
9177147,53816
553273,-2162470
7420404,-7610624
3798144,560095
16023709,3999885
8428856,3751176
10303747,-771779
3740672,-8326087
1835103,-6455052
24461,3775872
6262024,3422621
9242631,15673
526138,1310789
473844,-7531520
3863680,560585
16023709,6621325
8428857,3826952
10303862,-771329
3767808,-8326086
8847439,-6455052
20366,3775872
8293896,-6342243
9308410,42809
588348,8257548
1228529,3031296
12513664,732737
15827102,1182510
8429123,-4102389
10371894,-933529
4406784,-8326719
5111871,-6389519
27403,4431488
7015179,6243230
723865,28483
729287,-5635977
2148337,1157632
13103488,725418
15827102,-8385740
8429123,-3506165
10372000,-931200
4436224,-8326706
12124395,-6389519
60257,4431488
15425803,-2997346
8195003,55875
768977,5112034
12308977,8211968
14020992,758710
15827102,6097811
8429124,-2794229
10372115,-927613
4463616,-8326696
2359399,-6389519
26513,4497024
15304459,3949726
8850295,17732
751582,-1507243
12903921,-7676416
15069568,756446
15827102,-3929206
8429124,-1459189
10372222,-923204
4490752,-8326679
9896155,-6389519
64352,4497024
16474123,-5815138
6294422,47172
734957,-1376064
3599857,5434112
15593856,742123
15827102,-652491
8429124,-1182197
10372329,-922122
4520192,-8326676
131132,-6389519
15391,4562560
3940107,1721758
15534821,8773
714219,-4390869
15068145,-1196800
15593856,708306
15827102,3214030
8429125,-1232630
10372444,-921293
4547584,-8326671
7077971,-6389519
21458,4562560
3019531,-8043106
1248251,36165
785395,3014814
5502961,-8053248
16249216,754974
15827102,5442437
8429125,-309749
10372551,-918714
4574976,-8326661
14614594,-6389519
62675,4562560
16044811,-1030754
13831084,70
733442,5439497
3212018,-1682688
193152,779859
15892638,-7140377
8429126,365323
10372658,-916077
4604416,-8326646
4849780,-6389518
29886,4628096
7650827,6506142
10357559,27462
734993,-3735437
3609074,-6371584
1569408,753056
15892638,3279741
8429126,1520139
10372773,-910872
4631808,-8326631
11862085,-6389518
17733,4628096
14629899,-3258722
3935206,54854
779803,-2162458
14556658,4968448
1962624,740304
15892638,-2225333
8429127,1914379
10372879,-910026
4659200,-8326627
2621566,-6389518
13853,4693632
3546379,3688350
1903615,18759
758555,4456529
9640946,476160
1831552,722756
15892638,-7402748
8429127,2002699
10372986,-909681
4688640,-8326622
9633930,-6389518
35339,4693632
9046795,-5552226
1379191,46151
751396,7012540
7808242,1403648
2617984,729205
15892638,-7206112
8429127,2593291
10373101,-906494
4715776,-8326613
16646211,-6389518
17206,4759168
7493643,1460382
5770030,10056
763441,-3932113
10891762,8373248
3273344,753604
15892638,-5895297
8429128,3474699
10373208,-903931
4743168,-8326603
7405646,-6389518
26550,4759168
6796811,-8304482
11930401,37448
776001,4849818
14107122,-3192320
4321920,773962
15892638,1838010
8429128,4594699
10373315,-899556
4772608,-8326585
14418013,-6389518
23947,4759168
6130443,-767842
6818592,64584
729161,-65531
2116082,6881024
4846208,740321
15892638,-1111221
8429129,4845323
10373430,-899081
4800000,-8326585
4587723,-6389518
52014,4824704
1312779,6244766
527319,26441
776006,1310840
542962,-851200
4780672,717571
15892638,527091
8429129,4876042
10373537,-898457
4827392,-8326582
12124173,-6389518
26667,4824704
6826763,-3520098
2821022,55881
784719,-5177118
16338930,6861056
5239424,747697
15892638,-4846713
8429130,5420555
10373643,-896330
4856832,-8326571
2359344,-6389518
12430,4890240
3182091,4016798
8391636,17738
775256,-1638323
13916402,-8329472
6025856,752519
15892638,-4977797
8429130,6009867
10373758,-893171
4884224,-8326561
9371827,-6389518
45931,4890240
3428363,-5748066
5245771,45130
740196,3408064
14052082,4105472
7008896,736933
15892638,-2749634
8429130,7210251
10373865,-889339
4911616,-8326546
131303,-6389518
55600,4955776
14233611,1199006
3148729,9035
728944,-327637
2060530,3406592
7402112,734203
15892638,-1438915
8429131,7334411
10373972,-888854
4941056,-8326547
7143630,-6389518
52797,4955776
13516043,-8041570
3476384,36427
761964,1245334
10513650,3478272
7271040,733905
15892638,1837874
8429131,7216139
10374087,-888501
4968192,-8326543
14090418,-6389518
45635,4955776
7757323,-1029218
6163220,63563
726131,7733257
10909170,7235072
7729792,749158
15892638,-5895314
8429132,7872779
10374194,-886751
4995584,-8326536
4915254,-6389518
25735,5021312
6588171,5983390
8850176,27468
784252,-1769356
16219378,-7936768
8188544,755429
15892638,-5960834
8429132,8365323
10374301,-884827
5025024,-8326525
11862246,-6389518
58983,5021312
15099659,-3257186
8063867,54860
752521,3997918
8096242,8076544
9302656,760261
15892638,-324711
8429132,-7472373
10374416,-880652
5052416,-8326513
2097324,-6389518
44171,5086848
11364363,3755422
6818674,16717
750224,-5439407
692722,4828160
9564800,739756
15892638,658249
8429133,-7391221
10374522,-880840
5079808,-8326513
9633824,-6389518
22082,5086848
5653003,-6009442
4328279,46157
768396,-1310532
12160242,1436672
9237120,726508
15892638,-1504496
8429133,-7476981
10374629,-881175
5109248,-8326512
16646275,-6389518
33564,5152384
8592395,1527454
1313549,8014
724371,-5963737
889842,1352960
9761408,725075
15892638,-3732720
8429134,-7026933
10374744,-879146
5136640,-8326507
6881289,-6389518
2553,5152384
7666954,-8302946
16583288,35406
686232,7602330
11705074,1778432
10154624,727843
15892638,-5108965
8429134,-6506485
10374851,-877384
5163776,-8326500
14418139,-6389518
38727,5152384
9914123,-1290594
4656003,64846
739239,-3211259
4696050,5951232
11006592,744143
15892638,-783495
8429135,-5639157
10374958,-873996
5193216,-8326485
4653168,-6389518
28818,5217920
7377419,6246302
10881833,26447
731563,1704048
2730994,-5891584
11268736,761699
15892638,5049247
8429135,-5550837
10375073,-874349
5220608,-8326488
11600051,-6389518
45971,5217920
14125067,-3518562
8915878,53839
763558,-2686749
11249394,7158272
10941056,748858
15892638,-5567635
8429136,-5721333
10375180,-874317
5248000,-8326488
2359543,-6389518
54326,5283456
13907467,3494046
3541827,17744
751276,-4915123
7777522,1750272
11334272,727733
15892638,4590352
8429136,-5356021
10375287,-872890
5277440,-8326481
9371822,-6389518
44562,5283456
11407883,-5746530
789499,45136
785329,-4587336
16495090,834048
11858560,723237
15892638,5507849
8429136,-4959221
10375402,-870586
5304832,-8326473
16384016,-6389518
4140,5348992
2726411,1266078
10095540,6993
767164,2687019
5816818,-293632
12710528,785285
15892638,5770235
8429137,-3978740
10375508,-867510
5332224,-8326461
7143448,-6389518
21700,5348992
5555211,8212894
12848074,36433
729284,-1965930
2147570,8315392
12907136,753378
15892638,-6616263
8429137,-4023541
10375615,-867685
5361664,-8326465
14155864,-6389518
22535,5348992
5768971,-1027682
12520061,63825
687550,-2949119
8240882,-4205824
12513920,701080
15892638,-652622
8429138,-4262390
10375730,-868250
5388800,-8326464
4391033,-6389518
31201,5414528
4656139,5984926
789248,25426
721090,4653172
7717874,3158528
12841600,733234
15892638,7670576
8429138,-3841781
10375837,-866975
5416192,-8326459
11927559,-6389518
17761,5414528
4546827,-3779938
6359963,54866
725449,-1507105
1165810,5433600
13234816,742121
15892638,2427714
8429139,-3463925
10375944,-865499
5445632,-8326451
2097195,-6389518
11066,5480064
2832907,3756958
4656078,16723
773843,-3932086
13554674,4703232
14152320,745356
15892638,6687583
8429139,-2660853
10376059,-862016
5473024,-8326440
9109572,-6389518
17533,5480064
9158155,-6007906
12454782,44115
753368,-7667523
7657714,3773440
14217856,801172
15892638,7605305
8429139,-2757364
10376166,-862739
5500416,-8326443
16646204,-6389518
61665,5545600
15786251,1004702
14748592,8020
736978,-3866585
4117234,8176896
13824640,752837
15892638,-586966
8429140,-2885877
10376272,-863241
5529856,-8326443
6881500,-6389518
56344,5545600
14424075,-8235874
15862420,35412
693462,-1507182
9754354,-857856
14152320,708287
15892638,-8254770
8429140,-2653686
10376387,-862006
5557248,-8326440
13893800,-6389518
43209,5545600
7525642,-699234
13961911,1365
689628,65549
8772850,-1507072
14480000,715009
15892638,1968900
8429141,-2220533
10376502,-860642
5588736,-8326430
5177363,-6389518
4903,5611136
1255179,6837662
3476381,28757
761320,-4259720
10348786,3522304
15331968,732133
15892638,-1242325
8429141,-1446645
10376617,-857565
5616128,-8326422
12189951,-6389518
65323,5611136
3880715,-2992738
3607347,56149
734186,3866859
12904690,5352448
15266432,741804
15892638,-3929263
8429142,-1765621
10376724,-858865
5643264,-8326427
2949216,-6389518
33113,5676672
8476939,4019870
5835749,20054
731107,-8060842
2614258,6915328
14938752,747909
15892638,6687600
8429142,-1743349
10376831,-858778
5672704,-8326427
9961618,-6389518
37488,5676672
9596939,-5220706
6687710,47446
777958,1638593
14608114,6691072
15266432,740526
15892638,199500
8429142,-1572085
10376946,-857661
5700096,-8326423
131300,-6389518
58420,5742208
3944715,1791902
3214104,9047
727276,3932212
2747890,4440064
15594112,738240
15892638,2689859
8429143,-1044469
10377053,-856048
5727488,-8326416
7733294,-6389518
23984,5742208
6139915,-7972962
11537339,38487
780792,524447
15333618,-3864576
16315008,771336
15892638,-1831996
8429143,-400373
10377160,-853532
5756928,-8326407
14680207,-6389518
36778,5742208
9415179,-436322
8260553,344
772601,-2555895
13236722,8313088
16249472,743424
15892638,7211864
8429144,-561653
10377275,-855181
5784320,-8326413
4915343,-6389518
36658,5807744
14613258,6576286
16452260,27736
697585,-2228100
8057586,-2123520
15921792,712601
15892638,7998175
8429144,-789494
10377381,-855052
5811712,-8326413
12451921,-6389518
2796,5807744
715786,-3188578
15469257,57176
667638,262375
3143410,-457728
16183936,719108
15892638,-4846851
8429145,-543222
10377488,-854090
5841152,-8326407
2687073,-6389518
24832,5873280
6357003,4348318
789289,19033
731643,-7536558
2751474,822528
16577152,728079
15892638,-4584676
8429145,-214517
10377603,-851858
5868544,-8326400
9699369,-6389517
10545,5873280
6573067,-5482082
4983672,46425
751622,6553797
6293747,5842432
586624,743718
15958174,6294361
8429145,594187
10377710,-849647
5895680,-8326391
458889,-6389517
56428,5938816
14445579,1530526
7080917,10330
781575,3538992
15534067,-8309248
521088,753974
15958174,-4453538
8429146,310283
10377817,-850756
5925120,-8326399
7405685,-6389517
30025,5938816
7686411,-7710050
5508076,37466
781312,6684827
15466739,5531136
193408,749000
15958174,-7599251
8429146,166923
10377932,-850922
5952512,-8326396
14418045,-6389517
32110,5938816
16612363,-697698
8129322,64858
731653,-196594
6948595,-6503936
455552,761026
15958174,6949788
8429147,499467
10378039,-850017
5979904,-8326393
5177571,-6389517
19414,6004352
4969995,6314910
14027637,28763
764683,-1113992
11209715,-3543296
783232,772591
15958174,-3798121
8429147,902667
10378146,-848442
6009344,-8326383
12189722,-6389517
6764,6004352
1731595,-2925666
4918120,56155
747542,-4456221
6821619,4963328
1635200,735348
15958174,2755384
8429148,1583627
10378261,-845849
6036736,-8326377
2424832,-6389517
51,6069888
5973771,4086942
2558757,18012
730392,5963862
13440499,2018048
1438592,728779
15958174,-3339490
8429148,1159178
10378367,-847440
6063872,-8326383
9961540,-6389517
2988,6069888
764938,-5743458
11274760,47452
671504,1900737
4133107,-4842240
1110912,701981
15958174,-4388107
8429148,1162506
10378474,-847427
6093568,-8326382
196819,-6389517
54035,6135424
13832971,1793438
3214292,9309
775187,-7536596
13898739,3247360
1438592,736122
15958174,7867195
8429149,1406987
10378589,-846168
6120704,-8326378
7209085,-6389517
32095,6135424
13882891,-7971426
14027762,36445
782871,-2948961
13507059,3375872
1700736,799619
15958174,-3273677
8429149,1843212
10378696,-844768
6148096,-8326372
14745747,-6389517
20526,6135424
5254668,-959074
3017904,350
835876,2293770
12657907,992000
2421632,790307
15958174,3345348
8429150,2437899
10378803,-842445
6177536,-8326364
4915344,-6389517
36958,6200960
9461259,6577822
330573,27742
740644,-720780
5055731,390400
2159488,715802
15958174,-1111316
8429150,2158346
10378918,-844440
6204928,-8326371
11927782,-6389517
59083,6200960
9673482,-3187042
10160807,55134
698139,-7143193
12197107,-6751232
1897344,694524
15958174,-4584808
8429151,1985802
10379025,-844211
6232320,-8326370
2687089,-6389517
17133,6266496
4386058,3825566
15534609,19039
700447,1376338
11542515,-584448
2093952,718613
15958174,-4322528
8429151,2145803
10379131,-843586
6261760,-8326366
9699438,-6389517
28260,6266496
7234571,-5415010
9177872,46431
725028,-7929667
1058035,-7567616
2487168,754844
15958174,7408461
8429153,2715915
10379649,-841359
6392064,-8326359
10092769,-6389517
25912,6397568
6633483,-5611106
3673072,47969
779819,-1441597
15084531,4188672
2880384,737258
15958174,3410769
8429153,2962443
10379756,-840396
6421504,-8326353
262242,-6389517
25203,6463104
6451979,1925790
9636694,9570
742964,-1966035
5649651,-7085568
3666816,761231
15958174,-4060259
8429154,3654155
10379871,-837631
6448896,-8326344
7274532,-6389517
9348,6463104
13792523,-7839074
7670735,36962
773943,-3014496
14170099,6208512
3666816,745148
15958174,-2618530
8429154,3472907
10379977,-838402
6476288,-8326348
14811257,-6389517
13348,6463104
3417099,-826722
2362166,867
731184,3538955
2633971,865792
3208064,724278
15958174,6097652
8429155,3169546
10380084,-839587
6505728,-8326351
5046431,-6389517
40943,6528640
10481418,6710174
789326,28259
740914,-4259722
5124851,835328
3404672,735454
15958174,-2618568
8429155,3397643
10380199,-838577
6533120,-8326348
12058699,-6389517
19308,6528640
10588171,-3120226
9440003,55651
721718,-6225687
15677427,-6651392
3666816,760450
15958174,-1111142
8429156,3773963
10380306,-837226
6560256,-8326343
2818084,-6389517
29048,6594176
7436299,3892382
7867273,19556
730690,-6356908
2507507,6004480
4387712,744351
15958174,-2815153
8429156,4510987
10380413,-834347
6589696,-8326331
9830540,-6389517
35907,6594176
9192203,-5348194
3935107,46692
754500,-2359105
8602867,3988480
4453248,740976
15958174,-324786
8429156,4455179
10380528,-835287
6617088,-8326335
201,-6389517
51538,6659712
8538123,1664414
4721452,8549
732222,-8257486
5062131,4504320
4060032,738491
15958174,5049156
8429157,4116491
10380635,-835888
6644480,-8326338
7536815,-6389517
3104,6659712
794635,-8100450
2100162,37989
715328,3080348
15352051,-119040
4256640,720431
15958174,-5633274
8429157,4368907
10380741,-834902
6673920,-8326333
14549050,-6389517
14881,6659712
3809547,-563810
3541848,65381
743493,-1114105
5785075,3600128
4715392,738858
15958174,4328262
8429158,4669963
10380857,-833237
6701312,-8326327
4784131,-6389517
845,6725248
15024139,6448798
4197263,27238
757581,-1769350
13521651,4018432
5436288,736593
15958174,-3273923
8429158,5560587
10380963,-830247
6728704,-8326316
12320955,-6389517
58180,6725248
14894091,-3381602
4459442,56678
746580,5177573
6575347,5197568
5567360,741199
15958174,789319
8429159,5442571
10381070,-830708
6758144,-8326321
10682532,-6323981
31764,7446400
8131593,-4427361
788898,50289
631484,-3931956
10665203,836608
12120960,591811
15958175,-5764857
8429425,-4675575
10449406,-805362
7472640,-8326218
917652,-6323981
37895,7511936
3541257,2585247
592182,12146
603828,3539007
1422067,519936
11727744,591855
15958175,1378567
8429426,-5253111
10449513,-806952
7500032,-8326225
8454164,-6323981
62472,7511936
15992841,-7179617
526704,41586
645290,-1179478
14199539,781824
11203456,592878
15958175,2165007
8429426,-5693175
10449619,-808671
7529472,-8326233
15466740,-6323981
62481,7511936
15995145,357279
1444292,3443
640166,-6225899
12887795,1483008
11006848,599249
15958175,-6616796
8429427,-5793015
10449734,-809451
7556864,-8326234
5701676,-6323981
11312,7577472
15347721,7304095
3148270,30835
650915,-1441656
12886259,2889472
10548096,601111
15958175,-3929812
8429427,-6479095
10449841,-811741
7584000,-8326243
13238296,-6323981
51737,7577472
13244681,-2460769
1640845,60275
615058,-2227981
6460147,646656
9630592,592350
15958175,1378559
8429428,-7400184
10449948,-815339
7613440,-8326259
3473631,-6323981
57340,7643008
14679048,5076127
16582883,21876
582538,4718686
14912243,-178176
8975232,589511
15958175,-587522
8429428,-7801080
10450063,-817378
7640832,-8326265
10420270,-6323981
11778,7643008
2950409,-4688737
330018,49268
598661,2949329
4752371,729600
8647552,592674
15958175,4720907
8429428,-8274935
10450170,-818756
7668224,-8326271
1179813,-6323981
50959,7708544
13045513,2323871
985354,13173
623488,-4587460
8618227,1554944
8450944,595898
15958175,3541286
8429429,-8309239
10450277,-818890
7697664,-8326273
8192043,-6323981
11054,7708544
2829833,-6916705
2886016,40565
622716,-1048410
8420595,2945024
7992192,600446
15958175,6949161
8429429,7957001
10450392,-821956
7725056,-8326283
15204401,-6323981
12579,7708544
16585481,95903
1247632,2422
626799,-196583
15100659,365824
7009152,591253
15958175,-1701627
8429430,6811912
10450498,-825359
7752448,-8326297
5963997,-6323981
53247,7774080
13631240,7042719
16713931,31862
590180,-3407740
91379,52224
6615936,590028
15958175,8325377
8429430,6389513
10450605,-827009
7781888,-8326305
12976218,-6323981
23043,7774080
5899017,-2197857
330230,59254
652892,6160623
16145651,351744
6026112,591902
15958175,4131080
8429431,5979913
10450720,-829095
7809024,-8326311
3211367,-6323981
26379,7839616
3805193,4814751
1051049,21111
633175,3801186
3692787,1976320
5829504,597544
15958175,3672350
8429431,5749001
10450827,-829511
7836416,-8326313
10748036,-6323981
8238,7839616
2108937,-4950113
3017096,50551
625745,1376461
9196019,2823424
5370752,600853
15958175,5835045
8429431,5134601
10450934,-831911
7865856,-8326327
917543,-6323981
10011,7905152
2562825,2586783
788772,12152
599107,393271
2376691,787968
4191104,590008
15958175,4524288
8429432,4146441
10451049,-836356
7893248,-8326340
7929870,-6323981
3837,7905152
6946568,-7178081
16713880,39544
563258,6881451
4995315,73728
3732352,590112
15958175,4983041
8429432,3537673
10451156,-838149
7920640,-8326347
15466602,-6323981
29188,7905152
7472137,-165729
264566,3449
612401,-65515
5779955,392960
3273600,591359
15958175,-4126457
8429433,3129609
10451262,-839743
7950080,-8326355
5701670,-6323981
9741,7970688
2493705,7371167
1444180,30841
611373,-7405440
5516787,1478400
3076992,599385
15958175,2689317
8429433,3025161
10451377,-840632
7977472,-8326356
12714225,-6323981
61741,7970688
2108681,-2459233
2951453,58233
597289,2097395
1255155,2636544
2552704,600123
15958175,1247528
8429434,2259721
10451484,-843141
8004608,-8326366
3473486,-6323981
63252,8036224
16192521,4553375
1313239,22138
606488,8257630
4266227,425472
1635200,591486
15958175,3016957
8429434,1388040
10451591,-846546
8034048,-8326381
10485910,-6323981
38654,8036224
9895432,-4687201
67992,49530
628753,5308617
9966067,86272
1045376,590307
15958175,-5830399
8429434,1025801
10451706,-848429
8061440,-8326387
655460,-6323981
25603,8101760
2557193,2325407
330200,11131
645131,2555964
3541747,415232
717696,591446
15958175,3541254
8429435,597001
10451813,-849636
8088832,-8326391
8257628,-6323981
61969,8101760
15864073,-7439457
1116536,40571
610825,-6094681
5376499,2073344
652160,597923
15958175,-4519635
8429435,637705
10451920,-849477
8118272,-8326392
15204354,-6323981
561,8101760
143625,97439
2951548,2428
621573,-5177327
8127987,2994432
258944,599523
15958175,2558245
8429436,206601
10452035,-852121
8145664,-8326401
5439622,-6323982
34330,8167296
11668489,7109791
788876,29820
625914,-5111676
14808818,18432
16183936,589896
15892639,-2029312
8429436,-699640
10452141,-854701
8173056,-8326411
12976298,-6323982
7416,8167296
1898504,-2655073
16255040,59260
583666,-6684433
15201010,-419328
15921792,588186
15892639,-6878979
8429437,-944376
10452248,-855657
8202496,-8326416
3211414,-6323982
38400,8232832
9830409,4881823
395644,21117
621807,-3538854
8187890,444928
15659648,592823
15892639,-3798773
8429437,-1128951
10452363,-856619
8229888,-8326419
10223625,-6323982
2316,8232832
8917769,-4948577
1247664,48509
635117,-7864115
4321522,2474752
15790720,599491
15892639,4262181
8429437,-1066999
10452470,-856136
8257024,-8326417
983040,-6323982
30258,8298368
7746057,2064031
3279167,12414
634347,-6881224
11398130,3118848
15463040,602007
15892639,5900586
8429438,-1484279
10452577,-857766
8286464,-8326428
7930091,-6323982
60187,8298368
15407881,-7176545
788877,39550
626144,-3604317
9298162,837888
14545536,590866
15892639,-7599857
8429439,-2651127
10452889,-862462
8364288,-8326441
11141358,-6323982
60944,8363904
3543561,-4030561
1182132,51839
636118,3539163
12310514,1722368
14152320,596552
15892639,-4519654
8429439,-2546679
10452996,-861916
8391680,-8326439
1835118,-6323982
18740,-8347776
4797449,2982047
3410176,15744
590551,-4194234
186354,3325952
14152320,602816
15892639,7342381
8429440,-2789367
10453103,-862864
8421120,-8326446
8847462,-6323982
26151,-8347776
6694665,-6258529
1640734,43136
597709,6946992
2018802,1665536
13300352,592531
15892639,198922
8429440,-3538167
10453218,-866236
8448512,-8326456
15859868,-6323982
39938,-8282240
7406601,754079
264598,4993
628423,7405603
8636402,438272
13103744,591536
15892639,-8189690
8429441,-3751415
10453324,-866622
8475904,-8326458
6619238,-6323982
36107,-8282240
9243401,7700895
723200,34433
598982,-2293618
2344690,974080
13038208,593629
15892639,-1373934
8429441,-3806455
10453431,-866837
8505344,-8326459
13631556,-6323982
17429,-8282240
4461833,-1474145
1640834,61825
623301,4063481
8570354,1654272
13169280,599401
15892639,-5175003
8429442,-3624695
10453546,-865628
8532480,-8326454
3866633,-6323982
2354,-8216704
6501641,5472927
3475857,23682
627146,6488172
4508402,3301632
13300352,602721
15892639,4458802
8429442,-3606263
10453653,-866055
8559872,-8326456
11403307,-6323982
61732,-8216704
15803401,-4291937
2361805,53122
610754,-4456233
5358322,1424384
12776064,595388
15892639,8128776
8429442,-4162551
10453760,-868228
8589312,-8326464
1638413,-6323982
3332,-8151168
853001,3244959
330193,14723
643521,5701698
13746674,349952
12776064,591420
15892639,5966086
8429443,-4039927
10453875,-867576
8616704,-8326461
8585260,-6323982
11272,-8151168
8981001,-6519905
657810,42115
627395,-7798603
13681906,864000
12907136,593199
15892639,-3143411
8429443,-3764215
10453982,-866672
8644096,-8326458
16122090,-6323982
30484,-8151168
7803913,492703
1313190,6020
603082,2162719
3394290,1777920
13300352,596769
15892639,-2815702
8429444,-3222263
10454088,-864555
8673536,-8326448
6357244,-6323982
64563,-8085632
16528137,8029343
3410216,33412
600273,-2228086
2675186,3464704
13759104,602366
15892639,4786480
8429444,-3061495
10454204,-863937
8700928,-8326447
13369470,-6323982
32298,-8085632
6036745,-1735521
1903056,60804
643279,6029565
12242418,922880
13496960,593429
15892639,-4585202
8429445,-3360247
10454310,-865094
8728320,-8326452
4128974,-6323982
18948,-8020096
4850697,5211551
264501,24709
613840,327784
6148338,394496
13693568,591365
15892639,-6813434
8429445,-3041271
10454417,-863848
8757760,-8326445
11141340,-6323982
56327,-8020096
14419721,-4029025
788761,52101
596436,6357203
1692914,811264
14086784,593796
15892639,4262159
8429445,-2735863
10454532,-862250
8784896,-8326441
1376288,-6323982
8208,-7954560
6624009,2983583
1247579,13702
613337,6619206
7986674,2025216
14545536,597735
15892639,7932190
8429446,-2021879
10454639,-859866
8812288,-8326431
8913147,-6323982
41524,-7954560
10630153,-6781281
3410304,43398
634594,3014833
11461362,3354112
14873216,602926
15892639,-4978386
8429446,-1919991
10454746,-859468
8841728,-8326431
15859725,-6323982
3365,-7954560
861449,755615
1444120,4999
596191,5767195
1630194,1464320
14545536,591924
15892639,4786440
8429447,-2275063
10454861,-860854
8869120,-8326435
6094989,-6323982
36097,-7889024
7602953,7767967
199089,32391
635358,7602318
14606322,305152
14676608,591016
15892639,-2225916
8429447,-2110711
10454968,-860213
8896512,-8326433
13631511,-6323982
25607,-7889024
6555401,-1996897
461221,61831
627937,-7143175
9757170,627456
14807680,592275
15892639,-5699315
8429448,-1922807
10455083,-859361
8925952,-8326429
3866711,-6323982
22290,-7823488
5706249,5539999
1509856,23688
647396,-2097052
14738674,1564672
15266432,598904
15892639,7801123
8429448,-1542391
10455189,-857562
8953344,-8326422
10879152,-6323982
45102,-7823488
11154185,-4224865
3344881,51080
651753,-5635881
977394,3183872
15331968,602261
15892639,919856
8429448,-1586423
10455296,-858165
8980480,-8326425
1638451,-6323982
51742,-7757952
13245961,2722207
1968471,14985
595169,7143490
1368562,1076480
14807680,594029
15892639,919811
8429449,-2159095
10455403,-860402
9009920,-8326433
8650927,-6323982
44800,-7757952
11468809,-6518369
264457,42121
592351,-3407699
647154,314368
14676608,591668
15892639,1902855
8429449,-2155255
10455518,-860295
9037312,-8326433
15597780,-6323982
54281,-7757952
8784649,494239
723287,3978
612319,-7995360
15851250,884480
14611072,593279
15892639,-980723
8429450,-2172919
10455625,-860456
9064704,-8326434
6357129,-6323982
1299,-7692416
332553,7506591
1247695,33418
620001,7602314
7725554,1668096
14807680,596340
15892639,-5961432
8429450,-1792759
10455732,-858971
9094144,-8326428
13369511,-6323982
42801,-7692416
10957065,-1733985
3279135,60810
597988,7864565
2090226,3307520
14873216,602281
15892639,4852016
8429451,-1947127
10455847,-860069
9121536,-8326432
3604708,-6323982
58410,-7626880
12131081,5278623
1771903,22667
622556,-4652952
7985650,778752
14283392,592866
15892639,7932171
8429451,-2607351
10455953,-862153
9148928,-8326440
11141157,-6323982
27141,-7626880
6948105,-4551777
330125,52107
626136,-3145517
9296114,512000
14217856,591824
15892639,-6223606
8429451,-2580215
10456060,-862047
9178368,-8326440
1376459,-6323982
51979,-7561344
13306633,3050655
788880,13964
626904,-2162626
9492722,843520
14217856,593887
15892639,-1505009
8429452,-2561783
10456175,-861818
9205504,-8326439
8388778,-6323982
43539,-7561344
71689,-6779745
1575328,41100
631002,65713
1564402,2387712
14611072,599151
15892639,1509668
8429452,-2061303
10456282,-860020
9232896,-8326432
15925489,-6323982
56885,-7561344
14562569,232863
3475892,5005
611040,-5111780
5431538,3256832
14742144,602546
15892639,-4912854
8429453,-2116343
10456389,-860235
9262336,-8326435
6095059,-6323982
54048,-7495808
13836297,7769503
1116491,32397
609242,7733383
4971250,1144320
14217856,590796
15892639,4000003
8429453,-2605815
10456504,-862127
9289728,-8326440
13107391,-6323982
49148,-7495808
10091784,-1995361
16582716,59789
539865,-6749958
9099762,15872
14283392,589886
15892639,-7730944
8429454,-2487799
10456611,-861686
9317120,-8326438
3866878,-6323982
50184,-7430272
12847113,5017247
526739,23694
622555,-4980636
8379378,963584
14414464,593588
15892639,-259821
8429454,-2294775
10456717,-860932
9346560,-8326434
10879169,-6323982
49431,-7430272
12654345,-4223329
1968481,51086
614880,524495
6414578,1968128
15004288,600893
15892639,-3864277
8429454,-1784567
10456833,-858381
9373952,-8326426
1114350,-6323982
60980,-7364736
16594441,2789279
3541413,12943
632294,-196542
6153970,3283200
15135360,602649
15892639,6097202
8429455,-1739255
10456939,-858762
9401088,-8326427
8650835,-6323982
47130,-7364736
12065289,-7041121
1706323,42383
633312,-7208787
11133170,823808
14742144,593042
15892639,6490372
8429455,-2137335
10457046,-860317
9430528,-8326431
15663140,-6323982
9220,-7364736
2360329,495775
461119,4240
606177,-2818024
4186610,513280
14873216,591999
15892639,4983048
8429456,-1946615
10457161,-859411
9457920,-8326430
5898381,-6323982
36105,-7299200
6097417,7508127
657872,31376
643299,6094987
7529714,762112
15004288,592801
15892639,7473419
8429456,-1731063
10457268,-858730
9485312,-8326427
13434930,-6323982
3857,-7299200
987401,-2256737
1116616,60816
628714,-3604234
9956082,1886464
15397504,597193
15892639,3082541
8429457,-1167607
10457375,-856529
9514752,-8326417
3604527,-6323982
12085,-7233664
3093769,5280159
3344880,22673
651502,-2424736
15789810,3398400
15659648,601811
15892639,-7599826
8429457,-1143799
10457490,-856921
9542144,-8326420
10617024,-6323982
49189,-7233664
9442569,-4484705
1378706,50065
627433,-7339821
12904434,394752
15200896,591366
15892639,-3929850
8429457,-1582328
10457596,-858149
9569536,-8326425
1376385,-6323982
60413,-7168128
15465736,2527903
16582704,13970
569576,6750270
11593970,-39168
15266432,589671
15892639,-2291455
8429458,-1516279
10457703,-857891
9598976,-8326423
8388832,-6323982
57347,-7168128
14680841,-6712673
526659,41362
607209,-7470935
4450802,560640
15397504,592854
15892639,3279115
8429458,-1428983
10457818,-857342
9626112,-8326421
15401037,-6323982
19727,-7168128
3872009,234399
1378743,3219
636907,3866652
4976626,2674176
15725184,600270
15892639,4917544
8429459,-945399
10457925,-855661
9653504,-8326415
6160421,-6323982
55100,-7102592
14105609,7246751
3934638,32659
607984,-3407737
4649202,3591168
15790720,603852
15892639,5048622
8429459,-1159927
10458032,-856499
9682944,-8326421
13172934,-6323982
50719,-7102592
12984073,-1993825
1051086,59795
642791,4260082
13559794,1065216
15004288,591239
15892639,-5633787
8429460,-1791479
10458147,-858992
9710336,-8326428
3342413,-6323982
19714,-7037056
14812169,5018783
264664,21652
645348,-1965979
12051442,625152
14938752,592266
15892639,-4781815
8429460,-1873143
10458254,-859285
9737728,-8326429
10879020,-6323982
4367,-7037056
1117961,-4746081
985458,51092
605922,-7798577
4121330,1018112
14873216,593801
15892639,-456431
8429460,-1967863
10458360,-859655
9767168,-8326431
1114363,-6323982
64276,-6971520
16454665,2790815
1837370,12949
604898,-8191942
3859186,1868544
15004288,600899
15892639,-6485717
8429461,-1794807
10458476,-859051
9794560,-8326428
8126689,-6323982
57651,-6971520
2962185,-6974049
3344666,40341
596706,2949293
844018,3063552
14742144,601791
15892639,788782
8429461,-2279415
10458582,-860872
9821952,-8326435
15663166,-6323982
4635,-6971520
1186569,-27233
1772013,4246
615636,-7995368
6608114,820736
13955712,593030
15892639,-7403260
8429462,-3043575
10458689,-863857
9851392,-8326448
5898347,-6323982
27396,-6905984
7013385,7509663
330064,31638
610511,-3669885
5296114,378880
13496960,591523
15892639,-2356986
8429462,-3286007
10458804,-865257
9878528,-8326452
12910844,-6323982
64520,-6905984
13437705,-2255201
723303,58774
616394,-3342090
3131890,922112
13234816,593426
15892639,3082510
8429463,-3679479
10458911,-866341
9905920,-8326457
3670156,-6323982
37908,-6840448
9704457,4757407
1313173,22935
637895,8323169
12306418,2064128
13103744,597887
15892639,-6551251
8429463,-3630071
10459018,-866148
9935360,-8326457
10616906,-6323982
18995,-6840448
4862729,-4483169
3148263,50071
649155,-4783925
15188978,3192576
12644992,601258
15892639,-1898196
8429463,-4136183
10459133,-869302
9962752,-8326468
852102,-6323982
34340,-6774912
7803913,2529439
1313191,11928
632758,7798846
9417202,494848
11661952,591757
15892639,-7403257
8429464,-5292023
10459240,-872640
9990144,-8326481
8388688,-6323982
25092,-6774912
6423561,-7235425
264658,41368
632491,-7208791
10922994,430592
11268736,591506
15892639,-194296
8429464,-5702391
10459346,-874243
10019584,-8326490
15400975,-6323982
3851,-6774912
985865,301471
854496,3225
647332,1048596
14722290,856064
10678912,594179
15892639,-2750191
8429465,-6105591
10459461,-876411
10046976,-8326496
5636121,-6323982
6421,-6709376
16259081,7313823
1575316,30617
627871,-524153
172530,2535168
10613376,599727
15892639,133414
8429465,-6325751
10459568,-876678
10074112,-8326497
13172792,-6323982
28980,-6709376
7418889,-2516577
3410189,60057
623256,4587762
8558834,3163648
10023552,602182
15892639,-1242839
8429466,-7017207
10459675,-879379
10103552,-8326514
3407911,-6323982
10014,-6643840
2563593,5020319
919989,21658
636296,-7143331
11897074,955136
8712832,590998
15892639,-7337724
8429466,-8089591
10459790,-884056
10130944,-8326526
10354921,-6323982
59650,-6643840
6161673,-4744545
330212,49050
648319,6160592
4619762,454400
8254080,591599
15892639,4589830
8429466,8055049
10459897,-886039
10158336,-8326534
1114203,-6323982
21258,-6578304
5442057,2268063
657666,12955
629877,-3014597
10253810,971264
7729792,593618
15892639,-5764845
8429467,7579657
10460004,-887896
10187776,-8326543
8126517,-6323982
13591,-6578304
3479305,-6972513
1968539,40347
629617,-2752347
10187250,2020864
7533184,601471
15892639,2296109
8429467,7480073
10460119,-888798
10215168,-8326544
15139026,-6323982
53812,-6578304
15217161,40095
3279218,2204
619116,-1572840
14838002,2929408
6877824,601267
15892639,-1963732
8429468,6604297
10460225,-891706
10242560,-8326556
5898353,-6323982
64534,-6512768
16520713,6986911
1444210,31644
590169,6422659
88562,614912
5894784,592226
15892639,4917506
8429468,5589769
10460332,-895669
10272000,-8326573
12910779,-6323982
47876,-6512768
12256265,-2188129
395566,59036
601681,8257774
3035634,425472
5173888,591672
15892639,-4519673
8429469,5159689
10460447,-897893
10299136,-8326580
3145918,-6323982
48647,-6447232
11012361,4758943
592209,20637
610634,-5767071
8931570,810240
4780672,592989
15892639,-7862004
8429469,4646665
10460554,-899353
9470208,-8326098
8978463,-6258444
8057,-7298944
2062599,-6123360
8062721,43664
459056,-1310542
78068,8121344
3273856,491098
16023712,6621054
8429712,3237127
10522851,-772918
9497600,-8326092
15990880,-6258444
24709,-7233408
232711,823712
9242550,5521
505398,196645
2111476,-7346432
3667072,495591
16023712,2099087
8429713,3598855
10522958,-772374
9524736,-8326090
6750236,-6258444
41869,-7233408
10718471,7836064
9242530,34961
507188,5570704
12399860,-7777024
3470464,493909
16023712,460672
8429713,3278599
10523065,-773625
9554176,-8326095
13762672,-6258444
28791,-7233408
7370503,-1404512
7538614,62353
505393,7012603
11940340,7564032
3339392,487996
16023712,-5044366
8429714,3322631
10523180,-773333
9581568,-8326093
3932215,-6258444
14194,-7167872
4158471,5608096
7604185,23954
514355,4128878
3355892,7637760
3470464,488587
16023712,3344244
8429714,3467271
10523287,-772888
9608960,-8326092
11534360,-6258444
3704,-7167872
948231,-4156768
7866254,53394
502327,5046489
11155444,8015104
3667072,490061
16023712,7931775
8429714,3766535
10523394,-771719
9638400,-8326084
1704187,-6258444
64392,-7102336
16484359,3380128
9242372,15251
459838,-7208893
278260,-7499264
4125824,494677
16023712,2819980
8429715,4074247
10523509,-770684
9665792,-8326083
8716343,-6258444
14215,-7102336
7045383,-6384736
8455982,42643
470588,7012534
1653492,7824896
3863680,489318
16023712,1640311
8429715,3676167
10523615,-772072
9693184,-8326088
16253148,-6258444
5734,-7036800
1467911,627872
6686551,6548
518967,-7339999
15415284,6918144
3667072,485776
16023712,3082090
8429716,3682055
10523722,-772049
9722624,-8326088
6488275,-6258444
54125,-7036800
13856007,8164512
7407453,33940
482617,-6160244
6109684,7447040
3798144,488169
16023712,-7796878
8429716,3770631
10523837,-771549
9750016,-8326086
13500536,-6258444
30836,-7036800
7436551,-1665888
7931901,61332
523578,7405823
9255924,8298752
3929216,491169
16023712,-7534722
8429717,4071175
10523944,-770529
9777152,-8326082
4259956,-6258444
16018,-6971264
4100615,5346720
9570136,25237
470593,-1310614
3031540,-6951936
4322432,497132
16023712,-587886
8429717,4257543
10524051,-769801
9806592,-8326080
11272280,-6258444
22669,-6971264
5803271,-3893856
8783838,52373
515646,8061141
14565108,-7963904
3929216,490239
16023712,-2095238
8429717,3923975
10524166,-771531
9833984,-8326086
1442044,-6258444
64623,-6905728
8677895,3118752
6948637,14230
466234,-8126392
15940340,7022080
3863680,486182
16023712,-850069
8429718,3863559
10524273,-771340
9861376,-8326086
8978446,-6258444
22124,-6905728
5663751,-6646112
7079754,43670
514107,7274674
14171124,7106304
3929216,486511
16023712,-1833106
8429718,3924999
10524380,-771100
9890816,-8326084
15990850,-6258444
17008,-6905728
4354055,890784
7604082,5527
487997,-5111779
7486964,7647744
4125824,489386
16023712,-1570953
8429719,4122631
10524495,-769581
9918208,-8326079
6226164,-6258444
62591,-6840192
16156423,7903136
8849276,32919
490563,-655216
11158516,-7813120
4453504,493768
16023712,-5634168
8429719,4400647
10524601,-769242
9945600,-8326077
13762719,-6258444
19844,-6840192
5080071,-1927264
8652590,62359
515135,-5373701
14434292,-8344064
4191360,491694
16023712,7931770
8429720,4028679
10524708,-770695
9975040,-8326084
3997829,-6258444
34169,-6774656
8747271,5609632
7931728,24216
479292,4128870
5258484,7945984
4060288,488653
16023712,2033524
8429720,4005639
10524823,-770752
10002176,-8326083
10944749,-6258444
60783,-6774656
10447879,-4155232
7079861,51352
505149,-6356775
212724,6880768
4125824,485630
16023712,198504
8429720,4092423
10524930,-770446
10029568,-8326082
1769495,-6258444
58206,-6709120
14900743,2857376
6162229,15257
479808,-4652988
5390580,6011136
4256896,482233
16023712,7472994
8429721,4354567
10525037,-769422
10059008,-8326075
8716417,-6258444
33137,-6709120
8483079,-6383200
8193875,42649
480070,7798958
5457652,8222464
4584576,491979
16023712,-587903
8429721,4585223
10525152,-768729
10086400,-8326075
15728893,-6258444
64897,-6643584
5737479,629408
9177050,4506
514627,5701665
3162612,-7267840
4322432,495898
16023712,3147665
8429722,4148231
10525259,-770228
10113792,-8326081
6488233,-6258444
34438,-6643584
8816135,7641760
8783680,33946
476991,6750348
4669428,-7969024
4191360,493159
16023712,-194685
8429722,4193543
10525365,-770051
10143232,-8326080
13500645,-6258444
58748,-6643584
15039495,-1598816
7604022,61338
472640,8061175
3555572,7633664
4256896,486625
16023712,-981140
8429723,4256007
10525480,-769609
10170624,-8326079
3735772,-6258444
56420,-6578048
2711303,5348256
6227736,23195
464962,2687082
4473844,5988352
4453504,482144
16023712,4458331
8429723,4631047
10525587,-768342
10197760,-8326074
11272243,-6258444
30836,-6578048
7894023,-4416608
7604190,52635
465993,1179861
1853940,7475712
4846720,487954
16023712,-4782230
8429723,4765447
10525694,-767817
10227200,-8326072
1507506,-6258444
45672,-6512512
11692039,3120288
6555418,14236
465478,-8323008
1722100,6586624
4453504,482705
16023712,1509213
8429724,4396807
10525809,-769591
10254592,-8326079
8454259,-6258444
29527,-6512512
2118663,-6644576
5506930,41628
488002,2097331
10241012,5663232
4453504,480874
16023712,-6551722
8429724,4418567
10525916,-769172
10281984,-8326077
15991024,-6258444
64600,-6512512
16537607,368032
5769003,5533
523075,-6946786
16466932,5936640
4453504,481942
16023712,1443675
8429725,4527623
10526023,-768746
10311424,-8326074
6225928,-6258444
2139,-6446976
547591,7904672
6227813,32925
484678,3408008
6637300,6239232
4781184,485027
16023712,6686566
8429725,4744711
10526442,-768127
10416640,-8326073
131305,-6258444
62557,-6315904
16014599,1286048
6096741,9119
505672,786475
12011764,6228992
4781184,483084
16023712,3409760
8429727,4797447
10526548,-767692
10446080,-8326070
7143579,-6258444
39778,-6315904
10183175,-7954528
6555538,36511
496203,3080342
9587700,6565632
5043328,484693
16023712,1640293
8429727,4987143
10526663,-766275
10473472,-8326066
14155776,-6258444
107,-6315904
15102727,-1007712
7538487,63903
472914,-1703927
2511604,7874560
5436544,489512
16023712,2492280
8429728,5342727
10526770,-765562
10500608,-8326063
4915330,-6258444
9334,-6250368
2389511,6004896
7735051,27808
497232,-4718476
9851124,7256064
5305472,487096
16023712,526179
8429728,5048327
10526877,-766712
10530048,-8326069
11927557,-6258444
1369,-6250368
350471,-3235680
5507005,54944
507211,2162911
12405748,5513472
5043328,480952
16023712,-4389034
8429728,5029127
10526992,-766912
10557440,-8326068
2097212,-6258444
15449,-6184832
10901767,3776928
5834530,16801
467533,-5898158
1789684,6036480
5174400,482332
16023712,1771356
8429729,5119495
10527099,-766434
10584832,-8326066
9634010,-6258444
1887,-6184832
483079,-5987936
6227831,46241
510287,-7601988
13193204,6523904
5239936,484236
16023712,6489960
8429729,5333767
10527206,-765597
10614272,-8326059
16646270,-6258444
32369,-6119296
8286471,1548960
7931812,8098
500822,-1048537
10770164,7991296
5764224,490548
16023712,-8386692
8429730,5734407
10527321,-764175
10641664,-8326058
6881520,-6258444
61561,-6119296
7501063,-8215904
7669544,35490
469078,7471258
12735732,7099904
5567616,486486
16023712,-4061332
8429730,5379335
10527427,-765419
10669056,-8326062
14418005,-6258444
12380,-6119296
3169287,-1269088
6031250,64930
464209,-1376251
1397236,6023936
5371008,482283
16023712,-5634210
8429731,5351943
10527534,-765526
10698496,-8326062
4653180,-6258444
31840,-6053760
8151047,6333344
6424340,26787
463955,-5308304
1332212,6467328
5502080,484350
16023712,3475299
8429731,5453063
10527649,-764757
10725632,-8326060
11665433,-6258444
6501,-6053760
8873991,-3497056
6817600,53923
475221,-7929629
6772468,7050752
5698688,486294
16023712,6752107
8429732,5833735
10527756,-763644
10753024,-8326055
2424876,-6258444
63614,-5988224
16285191,3515552
8259357,18084
523869,-6684594
16670196,-7890432
6157440,493466
16023712,5572486
8429732,6116615
10527863,-762539
10782464,-8326051
9371792,-6258444
36995,-5988224
9470727,-5725024
8324975,45220
487260,-786247
7298292,8385536
5895296,489459
16023712,-6486153
8429732,5872903
10527978,-763946
10809856,-8326057
16384217,-6258444
55664,-5922688
12217863,1287584
7210823,7077
477015,-4587476
4544756,7698688
5829760,488825
16023712,4523893
8429733,5812999
10528085,-763725
10837248,-8326056
7143660,-6258444
36735,-5922688
9404167,8299936
8324928,36517
474202,7798934
3955444,8353536
5960832,491383
16023712,-1636485
8429733,5957383
10528191,-763161
10866688,-8326053
14155994,-6258444
55928,-5922688
14317575,-940640
7866276,63909
500828,7798785
10771700,7894784
6157440,488493
16023712,-7403660
8429734,6131463
10528307,-761676
10894080,-8326048
4390943,-6258444
8054,-5857152
14975495,6071968
8521605,25766
492899,-1834892
4547828,-7925248
6616192,493330
16023712,4523911
8429734,6544903
10528413,-760866
10921216,-8326045
11927633,-6258444
5502,-5857152
1408519,-3758432
8259382,55206
496737,7340255
9724404,8089600
6419584,490352
16023712,3868532
8429735,6241031
10528520,-762053
10950656,-8326051
2162920,-6258444
59502,-5791616
15232519,3778464
7210844,17063
482397,655434
6053364,7211520
6222976,487593
16023712,-8386704
8429735,6193159
10528635,-762121
10978048,-8326050
9175060,-6258444
5234,-5791616
11956999,-5986400
7538519,44199
481119,-4849475
11493364,7811584
6288512,489266
16023712,-5306505
8429735,6332679
10528742,-761695
11005440,-8326048
16711820,-6258444
15749,-5726080
4031751,1026208
8718314,8104
472418,7012392
3498740,-7902464
6485120,493419
16023712,-3143797
8429736,6541319
10528849,-760880
11034880,-8326041
6881502,-6258444
56981,-5726080
14587143,-8214368
10225574,35496
501353,1769618
10906100,-6546688
6943872,498555
16023712,3475355
8429736,6894855
10528964,-759554
11062272,-8326040
13893721,-6258444
22936,-5726080
12816391,-1202016
9439218,62888
520807,-3997691
10839540,-8202496
6681728,492247
16023712,-5961854
8429737,6499847
10529070,-761042
11089664,-8326045
4653224,-6258444
11373,-5660544
2911495,5810592
7145271,26793
479587,-7470992
5334004,6917632
6550656,485774
16023712,7341931
8429737,6516743
10529177,-760976
11119104,-8326045
11665464,-6258444
14447,-5660544
3698439,-3429984
7341923,54185
484196,-5308197
6513908,7384832
6681728,488038
16023712,7669618
8429737,6649095
10529292,-760392
11146240,-8326043
1900646,-6258444
26229,-5595008
12089607,3517088
7931824,16042
503910,-4718514
13330420,8244992
6812800,490959
16023712,-3471491
8429738,6958855
10529399,-759249
11173632,-8326038
9437212,-6258444
8075,-5595008
2067207,-6247776
9111397,45482
496493,-5766983
9661940,-7559168
7206016,494760
16023712,-2750582
8429738,7132679
10529506,-758570
11203072,-8326036
16449555,-6258444
4999,-5529472
1279751,1289120
8718124,7083
470123,-7536604
2911220,-8024832
6878336,490827
16023712,3671933
8429739,6830087
10529621,-760403
11230464,-8326043
6619146,-6258444
2677,-5529472
7500039,8301472
7407416,34475
473189,7471255
3630836,7565312
6747264,488304
16023712,3606387
8429739,6703879
10529728,-760245
11257856,-8326042
14155969,-6258444
7798,-5529472
1996295,-1463392
7735179,63915
499046,-2424831
10315508,7854848
6747264,489435
16023712,4458360
8429740,6767623
10529834,-759996
11287296,-8326040
4391165,-6258444
64891,-5463936
16612103,6073504
8390444,25772
470120,-3211156
2910452,-8335616
6943872,492808
16023712,5769093
8429740,6903815
10529950,-758555
11314688,-8326036
11403394,-6258444
33421,-5463936
16684295,-3691360
9766722,53164
475758,-130849
1339124,-6658304
7271552,498279
16023712,1312666
8429741,7175943
10530056,-758401
11342080,-8326035
2162904,-6258444
55950,-5398400
14323207,3255712
9308065,17069
466538,-4325302
1993460,-8143360
7009408,492478
16023712,7210869
8429741,6778375
10530163,-759954
11371520,-8326043
9175181,-6258444
36209,-5398400
9269511,-5984864
7342053,44461
517477,7471285
15033844,7369216
6747264,486619
16023712,1574764
8429741,6690823
10530278,-760336
11398656,-8326043
16187500,-6258444
27759,-5332864
5861639,1027744
7407433,6062
477542,5832744
2844404,7367680
6747264,487532
16023712,2819952
8429742,6724615
10530385,-760164
11426048,-8326042
6947019,-6258444
3190,-5332864
816647,8040096
7735117,35758
461672,3801235
747764,8075776
6878336,490298
16023712,6817664
8429742,6907911
10530492,-759448
11455488,-8326036
4194434,-6192908
51640,-5791360
9157381,5810081
12256717,24999
380187,-7667599
11213812,-4319488
1832064,376343
16023713,-5569090
8429991,1831941
10594202,-779276
10985984,-8326117
11731024,-6192908
30143,-5791360
7716613,-3954783
12518802,54439
363035,5963996
9051124,-3974400
1832064,377691
16023713,1836483
8429991,1776645
10594309,-779492
11015424,-8326117
1966155,-6192908
19395,-5725824
4965125,3582113
12911985,16296
356637,-4849593
7413236,-3820032
2094208,379759
16023713,4195787
8429992,2048005
10594424,-778432
11042816,-8326113
8978586,-6192908
39629,-5725824
16501253,-6182751
13239629,43432
347422,-327494
16260596,-3636224
1963136,379012
16023713,-522808
8429992,1816325
10594531,-779337
11070208,-8326117
16515298,-6192908
60603,-5660288
15514373,829857
12256647,7337
359958,5177381
8263412,-4960512
1504384,373839
16023713,-3865167
8429993,1426693
10594638,-780859
11099648,-8326122
6684815,-6192908
36786,-5660288
9417221,8366497
11732412,34729
375829,8126607
12326388,-5014528
1438848,373752
16023713,1115571
8429993,1380613
10594753,-781016
11127040,-8326123
13697204,-6192908
46261,-5660288
6534917,-1398367
11994609,62121
389396,6488066
2954740,-4686080
1438848,374911
16023713,2950584
8429994,1396741
10594859,-780976
11154432,-8326123
4456575,-6192908
50105,-5594752
12826885,5614241
12125466,26026
339480,-4980627
3021044,-4082688
1635456,377268
16023713,-8321593
8429994,1671429
10594966,-779903
11183872,-8326120
11468852,-6192908
13513,-5594752
3459333,-3626335
12912087,53418
382743,5112024
14096372,-3846656
1504384,376915
16023713,-3078720
8429994,1495301
10595081,-781071
11211264,-8326124
1704165,-6192908
58810,-5529216
12890885,3320737
11732443,15275
383761,-3932085
6492404,-5305856
1111168,372490
16023713,6489519
8429995,1063685
10595188,-782277
11238400,-8326128
9240676,-6192908
49584,-5529216
12693509,-6444127
11535670,44715
386831,2949302
15142900,-5034752
1045632,373549
16023713,-1702477
8429995,1041925
10595295,-782362
11267840,-8326128
16253124,-6192908
50355,-5463680
12890885,1092769
11863381,6316
349456,3801121
5574900,-4900352
1111168,374669
16023713,4392375
8429996,1065733
10595410,-782149
11295232,-8326128
6422782,-6192908
65209,-5463680
8240389,8105121
12387642,33708
342546,8192148
70900,-3918592
1373312,377909
16023713,67012
8429996,1352453
10595517,-781149
11322624,-8326124
13959345,-6192908
45253,-5463680
11584773,-1659743
12912071,63148
383762,-1965826
14357236,-3939840
1242240,377826
16023713,5899712
8429997,1137157
10595624,-781990
11352064,-8326130
4194495,-6192908
49080,-5398144
12564485,5877153
11601283,25005
361228,-4915095
8588532,-5131008
783488,372719
16023713,8127919
8429997,752645
10595739,-783464
11379456,-8326133
11206839,-6192908
47026,-5398144
15446533,-3887711
11666788,52397
353291,-1376036
6360052,-5039360
783488,373531
16023713,6358451
8429997,723973
10595845,-783604
11406848,-8326133
1966218,-6192908
26544,-5332608
6795269,3059361
11535837,16302
337419,6422599
2493428,-5283328
783488,372578
16023713,-653902
8429998,783877
10595952,-783370
11436288,-8326132
8978563,-6192908
33717,-5332608
8631557,-6115679
12125656,43694
382989,-7536462
14159348,-4616960
1045632,376884
16023713,-1636928
8429998,1042181
10596067,-782297
11463424,-8326128
15990979,-6192908
50113,-5267072
12959493,831393
12518820,5295
369678,-3866587
4001524,-4378880
980096,376111
16023713,3999165
8429999,817925
10596174,-783237
11490816,-8326132
6750221,-6192908
52401,-5267072
13414661,7843745
11601404,34735
334856,4718736
1837300,-5355520
586880,372296
16023713,-3209809
8429999,511749
10596281,-784433
11520256,-8326136
13697227,-6192908
52151,-5267072
13350661,-1396831
12322296,62127
391175,7995643
16254964,-4425216
521344,375822
16023713,-391748
8430000,522757
10596396,-784341
11547648,-8326136
3932181,-6192908
5562,-5201536
11515653,5615777
11994582,23984
382472,-5308306
14420212,-4890112
586880,374114
16023713,-2357835
8430000,605189
10596503,-784068
11575040,-8326135
11469030,-6192908
52144,-5201536
13348869,-4149087
11535681,53424
360461,6881496
8392180,-5084928
914560,373353
16023713,-5372493
8430000,962053
10596609,-782674
11604480,-8326131
1703993,-6192908
14770,-5136000
3781125,3387809
11273534,15281
343565,-7208893
4066804,-5467648
849024,370688
16023713,-7010904
8430001,824581
10596724,-783750
11631872,-8326134
8716331,-6192908
11172,-5136000
41221,-6442591
10552656,42673
348168,182
6817780,-6395392
521344,368234
16023713,6817182
8430001,531461
10596831,-784356
11659008,-8326136
16253123,-6192908
65186,-5070464
16687621,570017
10618155,6578
333576,4456481
1509620,-5946368
586880,369988
16023713,-850523
8430002,586501
10596938,-784141
11688448,-8326135
6488140,-6192908
19623,-5070464
5023493,8106657
11011452,33714
359433,1966220
8129012,-5759488
717952,371031
16023713,1508777
8430002,661253
10597053,-783689
11715840,-8326134
13435009,-6192908
33194,-5070464
16624901,-1658207
11339128,61106
358413,-196353
7278580,-5002752
1045632,373674
16023713,7275955
8430003,1041413
10597160,-782364
11743232,-8326129
4194360,-6192908
14514,-5004928
3715589,5354401
11666694,25011
328976,5242986
332020,-5222400
1111168,372816
16023713,-5569108
8430003,961285
10597267,-782677
11772672,-8326132
11206752,-6192908
24741,-5004928
6333701,-3886175
10421746,52403
389642,3211476
15862516,-6344448
717952,368104
16023713,-6027875
8430003,697349
10597382,-783557
11800064,-8326133
1441989,-6192908
50591,-4939392
5349893,3126433
10618313,14260
379147,5308487
6229236,-5949696
849024,369975
16023713,6227365
8430004,826373
10597488,-783204
11827456,-8326132
8978675,-6192908
10663,-4939392
2729733,-6703967
10945848,43700
343566,2556082
4067060,-5691648
980096,370983
16023713,2164137
8430004,991493
10597595,-782559
11856896,-8326129
15990980,-6192908
50346,-4939392
12888581,898465
11535759,5557
364306,4522013
9376500,-5225216
1373312,373882
16023713,-6552140
8430005,1350661
10597710,-780914
11884032,-8326123
6226113,-6192908
49587,-4873856
14004229,7845281
11535623,32949
329493,-2817904
1840372,-5380352
1373312,372199
16023713,1836461
8430005,1240837
10597817,-781585
11911424,-8326126
13762739,-6192908
51104,-4873856
13082629,-1919583
10487174,62389
331024,786683
856308,-6681600
1111168,367116
16023713,-2226792
8430006,1039877
10597924,-782370
11940864,-8326128
3997930,-6192908
60056,-4808320
15374341,5617313
9897373,23990
367888,-6684570
10293492,-6841856
1176704,367584
16023713,3147163
8430006,1126405
10598039,-781939
11968256,-8326127
10944576,-6192908
16546,-4808320
2925573,-4147551
10749434,51382
391697,2883801
15602420,-5926144
1242240,370067
16023713,-1178203
8430006,1296901
10598146,-781366
11995648,-8326125
1704058,-6192908
45229,-4742784
11578629,2865057
11339247,15287
357656,1114179
7674100,-4845312
1635456,374289
16023713,-4848197
8430007,1619461
10598252,-780106
12025088,-8326119
8716345,-6192908
14776,-4742784
3782661,-6375519
11666869,42679
374040,-5177170
11868404,-5066496
1569920,371637
16023713,6227371
8430007,1531653
10598367,-780905
12052480,-8326123
15728721,-6192908
20897,-4677248
7903237,637089
9962988,4536
388115,7864353
6427636,-7036928
1307776,365728
16023713,6423956
8430008,1277445
10598474,-781442
12079872,-8326125
6488177,-6192908
56724,-4677248
14521349,7583905
9700765,33976
334868,-7864180
1840372,-7108608
1373312,365448
16023713,-7666286
8430008,1346309
10598581,-781173
12109312,-8326124
13500576,-6192908
41108,-4677248
10523653,-1656671
9962813,61368
343317,8126711
4003316,-6784000
1438848,367303
16023713,-3340902
8430009,1428741
10598696,-780682
12136448,-8326122
3735662,-6192908
28315,-4611712
696325,5355937
10487221,22969
374040,655466
8395508,-5883904
1766528,370232
16023713,-8387162
8430009,1787141
10598803,-779451
12163840,-8326117
11272394,-6192908
36263,-4611712
9283333,-4408927
10945805,52409
330010,-4390699
596724,-5980928
1766528,369853
16023713,-4913760
8430009,1619205
10598910,-780107
12193280,-8326122
1441829,-6192908
9625,-4546176
2464005,3127969
9569626,14266
350741,-851905
5903860,-7146752
1373312,364570
16023713,-6683248
8430010,1350149
10599025,-781021
12220672,-8326123
8454270,-6192908
32401,-4546176
13406725,-6636895
9569790,41658
392724,-3407694
15275252,-7103232
1373312,365469
16023713,-1505901
8430010,1373701
10599131,-781066
12248064,-8326124
15990811,-6192908
22676,-4546176
5805061,375713
9700787,5563
332310,8126493
1185524,-6980608
1504384,365948
16023713,5637527
8430011,1463813
10599238,-780714
12277504,-8326121
6225928,-6192908
2201,-4480640
563461,7912353
10487192,32955
366618,5963912
9968372,-6268160
1832064,370260
16023713,-7338586
8430011,1806341
10599353,-779497
12304896,-8326117
13238527,-6192908
65444,-4480640
9805573,-1918047
10421698,60347
377370,-7012101
10296052,-6560000
1766528,367591
16023713,-6486629
8430012,1601541
10599460,-780176
12332032,-8326120
3997872,-6192908
9364,-4415104
2397189,5094561
9700823,24252
341525,6488166
3544564,-7380224
1438848,364387
16023713,-1243762
8430012,1371397
10599567,-781075
12361472,-8326123
11010179,-6192908
33683,-4415104
8622853,-4146015
9766207,51388
343829,7930065
4134388,-6981376
1438848,365887
16023713,-6290027
8430012,1417221
10599682,-780842
12388864,-8326123
1179722,-6192908
19094,-4349568
7706373,2866593
9897462,13245
390677,7667780
7935732,-6738432
1504384,366894
16023713,7931289
8430013,1543685
10599789,-780402
12416256,-8326121
8716323,-6192908
3483,-4349568
891653,-6898271
10159371,42685
343835,-2948946
4135924,-6171904
1832064,369107
16023713,-2816604
8430013,1824005
10599896,-779307
12445696,-8326116
15728686,-6192908
11939,-4349568
3056389,638625
10552800,4542
385051,131097
14687220,-6225408
1766528,367728
16023713,7013788
8430014,1731333
10600011,-780235
12473088,-8326120
5963977,-6192908
51604,-4284032
8228101,7650977
9242030,31934
372246,8192140
12588532,-7776512
1438848,362839
16023713,-4192887
8430014,1506053
10600117,-780549
12500480,-8326122
13500449,-6192908
21898,-4284032
5605893,-2179423
9045503,61374
356631,2883831
7411700,-7656448
1569920,363308
16023713,-6945397
8430015,1545733
10600224,-780394
12529920,-8326121
3735791,-6192908
61323,-4218496
15698693,5423009
9045414,23231
370200,4587618
10885364,-7715328
1700992,363043
16023713,4851082
8430015,1657349
10600339,-779766
12557056,-8326118
10748065,-6192908
41358,-4218496
5740293,-4407391
9897374,50367
368156,5701845
11738868,-6514944
2028672,367767
16023713,-5044836
8430015,2017541
10600446,-778551
12584448,-8326114
1507457,-6192908
19866,-4152960
5085701,2605217
10093938,14272
331806,-3407808
1056500,-6894592
2028672,366284
16023713,3212689
8430016,1913093
10600553,-778959
12613888,-8326118
8454381,-6192908
60809,-4152960
15567109,-6635359
8652108,41664
347161,3080363
4987380,-8114432
1700992,360716
16023713,-2226815
8430016,1695237
10600668,-779499
12641280,-8326117
15466585,-6192908
22914,-4152960
2524165,377249
8652237,3521
380186,2490398
16653044,-7929088
1766528,362243
16023713,-129657
8430017,1818373
10600775,-779329
12668672,-8326117
6226106,-6192908
60553,-4087424
15501573,7389601
8979807,32961
375324,7471240
12197108,-7507456
1897600,363890
16023713,5309838
8430017,1921285
10600881,-778927
12698112,-8326114
13238324,-6192908
13454,-4087424
3444229,-1850975
9635307,60353
387873,-4259597
15409652,-7094528
2290816,366325
16023713,-1636970
8430018,2287365
10600996,-777573
12725504,-8326110
3473545,-6192908
35223,-4021888
693509,5096097
9766318,22210
372258,655462
9773812,-7330048
2290816,364583
16023713,-7010928
8430018,2115333
10601103,-778169
12752640,-8326112
11010125,-6192908
46466,-4021888
11895301,-4668767
8521015,51650
331550,7209169
990964,-8360448
2028672,360558
16023713,6620546
8430018,1991941
10601210,-778651
12782080,-8326114
1245287,-6192908
26499,-3956352
6783749,2868129
8586737,13507
389406,7209020
15802100,-8163840
2094208,361578
16023713,3802500
8430019,2046469
10601325,-778325
12809472,-8326113
8257643,-6192908
27524,-3956352
5604869,-6896735
8783157,40643
341280,5570735
664052,-7798528
2225280,362753
16023713,656777
8430019,2225669
10601432,-777738
12836864,-8326111
15794413,-6192908
59788,-3956352
15305733,115873
9176536,4548
344358,3866650
4269812,-6931712
2552960,366139
16023713,-3734118
8430020,2541317
10601539,-776505
12866304,-8326106
5963882,-6192908
27288,-3890816
6985733,7652513
9700738,31940
360998,-5373820
8529652,-7033344
2487424,364468
16023713,591247
8430020,2427141
10601654,-777471
12893696,-8326109
12976144,-6192908
4233,-3890816
6652933,-2112351
8652040,59332
329761,6619383
7479796,-8282624
2225280,360862
16023713,7472513
8430021,2224133
10601760,-777744
12921088,-8326111
3735623,-6192908
43652,-3825280
11174917,4900257
8652194,23237
336418,-3211166
2237172,-8073472
2290816,361679
16023713,-6683259
8430021,2267653
10601867,-777574
12950528,-8326110
10747922,-6192908
4743,-3825280
1214213,-4340319
8979757,50629
339235,2425037
2958324,-7789312
2356352,362821
16023713,-7600759
8430021,2329605
10601982,-777002
12977664,-8326108
983249,-6192908
53641,-3759744
11899141,2606753
9504144,12486
364583,-4915136
14756084,-6782720
2684032,366721
16023713,-2030184
8430022,2686725
10602089,-775937
13005056,-8326104
8519808,-6192908
47764,-3759744
12227589,-7158111
9700830,41926
390695,2359467
16132084,-7134208
2618496,365348
16023713,853390
8430022,2493701
10602196,-776691
13034496,-8326109
15532050,-6192908
4743,-3759744
1214213,378785
8521005,3527
339235,-2818026
2958324,-8203008
2356352,361203
16023713,2426242
8430023,2303237
10602311,-777309
13061888,-8326109
5701792,-6192908
41091,-3694208
1147653,7391137
8586704,30919
380963,1114249
795892,-8128512
2421888,361464
16023713,787843
8430023,2345477
10602418,-777270
13089280,-8326109
13238462,-6192908
39559,-3694208
10127109,-2373727
8848766,60359
349733,-3669773
5645812,-7878656
2487424,362440
16023713,-3603065
8430024,2476293
10602524,-776759
13118720,-8326105
3473459,-6192908
13195,-3628672
3377925,5163169
9700616,22216
329770,1310814
535284,-7072768
2815104,367385
16023713,-1309285
8430024,2812933
10602639,-775664
13146112,-8326102
10486004,-6192908
62621,-3628672
15768581,-4601695
10225105,49608
381225,-1048367
3549684,-6727680
2749568,366936
16023713,3540377
8430024,2550533
10602746,-776469
13173504,-8326106
1245203,-6192908
44683,-3563136
11438853,2345377
9110791,13513
365348,-6619076
9643252,-7890176
2421888,362395
16023713,3540358
8430025,2438661
10602853,-776906
15448576,-8326055
12714204,-6127372
56349,-1334656
5774597,-2364510
1901880,58347
342106,5767412
15817460,1999616
5960832,335491
16023714,-981730
8430316,6024709
10677277,-762898
15475968,-8326053
3473435,-6127372
25121,-1269120
6430981,4648098
2164007,22252
329310,6881374
417524,2451712
6222976,337257
16023714,-6224597
8430316,6267141
10677383,-761951
15505408,-8326048
10485783,-6127372
5932,-1269120
1518597,-4592478
2753906,49644
356960,-4063031
7495924,2802176
6288512,338273
16023714,-2357975
8430316,6282245
10677499,-762334
15532800,-8326050
720960,-6127372
16422,-1203584
11345925,2420130
2098436,11501
328796,-5439428
15293172,1919488
5960832,335178
16023714,-1506019
8430317,5930245
10677605,-763267
15559936,-8326054
8257756,-6127372
63006,-1203584
16129541,-7410270
1967521,40941
365402,-1179481
9657076,2027008
5960832,335598
16023714,3278110
8430317,5976581
10677712,-763086
15589376,-8326053
15269960,-6127372
18463,-1203584
4726533,126626
2033104,2542
381019,-3866606
13655028,2082048
6026368,335513
16023714,-7928546
8430318,5998341
10677827,-762827
15616768,-8326052
5439716,-6127372
58398,-1138048
13574149,7138978
2098589,29934
367965,-3211131
13328372,2400768
6288512,337058
16023714,-3472092
8430318,6364933
10677934,-761569
15644160,-8326047
12976145,-6127372
10537,-1138048
2697477,-2625886
2688479,59374
348256,-5570320
5267700,2665216
6354048,338091
16023714,-5634778
8430319,6269445
10678041,-761942
15673600,-8326051
3211379,-6127372
29472,-1072512
7544837,4911010
1639842,21231
369243,2490458
10640372,1648128
5960832,333572
16023714,-8059625
8430319,5932293
10678156,-763184
15700992,-8326054
10223857,-6127372
61723,-1072512
15408901,-4853854
2032953,48623
342363,-1376051
9591796,2212864
6026368,336324
16023714,-7207647
8430319,5993477
10678262,-763020
15728384,-8326053
983200,-6127372
25631,-1006976
6561541,2093218
2033081,12528
383067,720952
14179316,2099968
6026368,335883
16023714,66852
8430320,6095109
10678369,-762623
15757824,-8326051
7995538,-6127372
37413,-1006976
9577733,-7081822
2491861,39920
382302,-8191837
13983476,2523904
6419584,338914
16023714,3999019
8430320,6372613
10678484,-761296
15784960,-8326046
15007878,-6127372
34351,-1006976
12594949,-135006
3081503,1777
335713,-4194282
12607732,2934784
6354048,339144
16023714,-4192980
8430321,6279173
10678591,-761904
15812352,-8326049
5767293,-6127372
49441,-941440
12656901,6877602
2164105,31217
367963,7536769
10312692,1798912
6026368,334707
16023714,2753817
8430321,5974533
10678698,-763094
15841792,-8326053
12779690,-6127372
43548,-941440
11148293,-2362974
2033059,58353
369499,7930092
10705908,2062592
6026368,335801
16023714,-5044961
8430322,6009605
10678813,-762899
15869184,-8326053
2949130,-6127372
2592,-875904
9379589,4649634
2033086,20210
376412,-7405473
12541172,2162176
6091904,336126
16023714,-4258528
8430322,6097413
10678920,-762614
15896576,-8326051
10485839,-6127372
4132,-875904
1057797,-5115230
2360743,49650
390495,-4652855
16080884,2734336
6288512,338361
16023714,8127788
8430322,6388741
10679026,-761476
15926016,-8326047
720945,-6127372
12587,-810368
3222277,2421666
2491849,11507
379232,852020
13197556,2493696
6354048,336404
16023714,6882594
8430323,6318341
10679142,-762081
15953408,-8326049
7733366,-6127372
30242,-810368
2432773,-7343198
2032974,38899
347740,2424999
16472820,1781760
5960832,334640
16023714,-326373
8430323,5963525
10679248,-763137
15980800,-8326054
15269981,-6127372
15387,-810368
3939077,-396382
1770766,2804
381530,3276818
13785844,1913344
5960832,335154
16023714,5244193
8430324,5984261
10679355,-763056
16010240,-8326052
5505033,-6127372
2339,-744832
598789,7140514
2229583,30196
347996,-2752387
5201140,2283008
6091904,336536
16023714,1639714
8430324,6035717
10679470,-762732
16037376,-8326052
12517487,-6127372
28448,-744832
3154181,-2624350
2164155,57332
375645,3145968
15622132,2428160
6288512,337165
16023714,-1178331
8430325,6343941
10679577,-761651
16064768,-8326048
3276912,-6127372
60966,-679296
15607301,4388258
2491831,21493
331104,5701723
876788,2381568
6354048,336983
16023714,-3537632
8430325,6212101
10679684,-762166
16094208,-8326052
10223751,-6127372
34585,-679296
8853765,-4852318
1181003,48629
346971,-982843
4938740,1241344
5960832,331936
16023714,3605776
8430325,5912325
10679799,-763262
16121600,-8326054
458954,-6127372
51730,-613760
16519941,2160290
1246640,10486
372826,-262088
3955700,1345280
6026368,332935
16023714,3933460
8430326,5989893
10679905,-763034
16148992,-8326053
7995575,-6127372
13845,-613760
3544325,-7604574
1377654,39926
338012,3997859
2645236,1457408
6091904,333373
16023714,5899542
8430326,6052357
10680012,-762790
16178432,-8326052
15007771,-6127372
6936,-613760
1775621,-67934
1967518,1783
368222,2752526
10378996,1976832
6354048,336622
16023714,-5962462
8430327,6333701
10680127,-761645
16205824,-8326048
5242921,-6127372
10531,-548224
5841157,6879138
2163998,29175
335456,5832833
16277492,2155008
6288512,336098
16023714,-522976
8430327,6212357
10680234,-762165
16232960,-8326050
12779771,-6127372
11545,-548224
2955525,-2885726
1639759,58615
362842,-65300
9001716,1244928
5960832,332543
16023714,7603473
8430328,5927941
10680341,-763276
16262400,-8326053
3014673,-6127372
4375,-482688
1120005,4651170
1770931,20216
373595,7340119
11754484,1798144
6026368,334585
16023714,4785434
8430328,5982469
10680456,-763014
16289792,-8326053
9961515,-6127372
11035,-482688
14425093,-5113694
1836467,47608
373595,-2359094
14441460,2001408
6026368,335498
16023714,-2357986
8430328,6054917
10680563,-762780
16317184,-8326052
720944,-6127372
10016,-417152
2564101,1898914
2098572,11513
351328,-4521932
6054132,2341632
6354048,336827
16023714,4523304
8430329,6374661
10680670,-761531
16346624,-8326047
7733289,-6127372
10538,-417152
2697733,-7341662
2688451,38905
377696,1114271
12804340,2691328
6288512,337603
16023714,-2620122
8430329,6281221
10680785,-762349
16374016,-8326050
14745661,-6127372
15651,-417152
5577733,-329310
1836335,762
339804,5570578
5594100,1474560
6026368,333440
16023714,5571862
8430330,5976581
10680891,-763086
16401408,-8326053
5505209,-6127372
29203,-351616
7475973,6617762
1246627,30202
390491,6815869
16079860,1140736
6026368,332136
16023714,-5438188
8430330,6073605
10680998,-762707
16430848,-8326052
12517417,-6127372
10522,-351616
2693637,-2557278
1836419,57594
361308,-7929624
8609012,1869568
6157440,335155
16023714,7079197
8430331,6122501
10681113,-762525
16457984,-8326051
2752681,-6127372
43296,-286080
140805,4389794
2491893,19195
390494,131163
7758324,2868480
6419584,338885
16023714,7734571
8430331,6432005
10681220,-761307
16485376,-8326046
10289312,-6127372
11051,-286080
2829061,-5375070
2819420,48891
374368,6291654
11952372,2646016
6354048,338016
16023714,-5503705
8430331,6269957
10681327,-761940
16514816,-8326051
458952,-6127372
51236,-220544
13116421,2161826
2164206,10492
388699,3801137
15621108,2177536
6026368,335565
16023714,1770782
8430332,5970693
10681442,-762931
16542208,-8326053
7471333,-6127372
58654,-220544
14294277,-7603038
1901994,37884
371291,-2490204
10378228,1799936
6026368,334711
16023714,-6421221
8430332,6021893
10681549,-762909
16569600,-8326053
15007750,-6127372
34839,-220544
8918789,-590686
1508661,1789
350301,2752526
5791220,1518080
6157440,333610
16023714,1312023
8430333,6099973
10681655,-762604
16599040,-8326051
5243081,-6127372
51483,-155008
13179653,6946210
2229545,29181
338272,-7339911
2711796,2265088
6419584,338176
16023714,-8321751
8430333,6390021
10681771,-761374
16626432,-8326047
12255443,-6127372
54058,-155008
14952453,-2818654
2622957,56573
388448,-1834772
6054132,2554112
6354048,337657
16023714,6030630
8430334,6200325
10681877,-762212
16653568,-8326050
3014659,-6127372
49689,-89472
12720389,4128418
1639823,20478
388442,-7733161
15555316,1411584
5960832,333194
16023714,-260843
8430334,5962757
10681984,-763140
16683008,-8326053
10027077,-6127372
17686,-89472
4527621,-5112158
1443179,47870
355163,-8388414
7035892,1474560
6026368,333898
16023714,-3668712
8430334,6014981
10682099,-762809
16710400,-8326052
262391,-6127372
63258,-23936
728069,1900450
1836519,9471
386907,720949
11820276,1823744
6091904,334804
16023714,-4979429
8430335,6102277
10682206,-762595
16737792,-8326051
7798934,-6127372
62237,-23936
15932677,-7864414
1901948,38911
344416,524448
4284660,2361344
6354048,336904
16023714,3278120
8430335,6369797
10682313,-761550
16767232,-8326047
14745667,-6127372
17191,-23936
4400901,-327774
2360670,512
351840,3538954
6185204,2373120
6288512,336273
16023715,-4979423
8430336,6272005
10682428,-762449
17408,-8326051
4980754,-6061836
4637,41856
14620933,6619299
1639845,27904
370011,-2162563
8215284,1634048
5960832,334063
16023715,8193304
8430336,5949701
10682534,-763191
44800,-8326054
12517584,-6061836
64539,41856
16521989,-3145565
1770791,57344
343899,590056
4152308,1575168
6026368,333833
16023715,3409172
8430337,5977093
10682641,-763084
74240,-8326053
2752618,-6061836
27154,107392
6951429,4391331
1115461,19201
345436,-2621357
4545780,1169408
6091904,332355
16023715,-1964782
8430337,6087173
10682756,-762670
101632,-8326052
9765106,-6061836
61977,107392
2369029,-5439069
2491855,46593
380766,2359494
16539892,2927616
6354048,339116
16023715,-260820
8430337,6368261
10682863,-761556
128768,-8326047
524517,-6061836
17453,172928
4467973,1573539
2950550,10498
361568,-393167
8675572,2816512
6354048,338682
16023715,-5569241
8430338,6269701
10682970,-761941
158208,-8326051
7536825,-6061836
47392,172928
12132357,-7667037
1639866,37634
375387,8126620
12213236,1670144
6026368,333567
16023715,-8256234
8430338,5997061
10683085,-762990
185600,-8326053
14483665,-6061836
53528,172928
2890245,-654685
1705313,65026
352603,2883599
10836980,1796096
6026368,334696
16023715,-5962469
8430339,6017285
10683192,-762927
212992,-8326053
5242959,-6061836
29472,238464
7544837,6357923
2098634,28931
353884,-2686855
6708468,2152192
6091904,336087
16023715,525601
8430339,6096901
10683298,-762616
242432,-8326051
12255442,-6061836
53794,238464
13771269,-2882653
2491876,56323
386143,3670244
14966772,2504704
6419584,338306
16023715,-7862999
8430340,6391813
10683414,-761419
269824,-8326047
2490416,-6061836
12328,304000
6759429,4129955
2360692,18180
357473,6750295
12869876,2055936
6354048,335711
16023715,-3930849
8430340,6222853
10683520,-762124
297216,-8326050
10027154,-6061836
5648,304000
1445893,-5700445
1050072,47620
371035,5439682
11099124,545536
6026368,329811
16023715,-5176059
8430340,6009093
10683627,-762959
326656,-8326053
262326,-6061836
46599,369536
11929349,1836451
591359,9477
393051,7274541
16735220,618240
6091904,330443
16023715,1836298
8430341,6036485
10683742,-762808
353792,-8326052
7274661,-6061836
42256,369536
1579269,-7928413
1639851,36613
371548,1573024
5135860,2016256
6157440,335556
16023715,5113118
8430341,6128901
10683849,-762491
381184,-8326051
14811164,-6061836
11298,369536
2892293,-916061
2229701,774
342881,7208971
3891700,2387456
6419584,337006
16023715,-457434
8430342,6420741
10683956,-761351
410624,-8326047
4980891,-6061836
39719,435072
10168069,6620835
2360828,27910
392288,-5832587
16539892,2402048
6354048,336487
16023715,787746
8430342,6294533
10684071,-762426
438016,-8326051
11993145,-6061836
14622,435072
7345669,-3144029
1443096,55302
333916,7340264
4807668,1101568
6026368,331983
16023715,4785424
8430343,6023685
10684178,-762902
465408,-8326053
2752569,-6061836
25105,500608
6426885,3868579
1115595,19207
379995,-982957
13392884,1372416
6026368,333041
16023715,-260839
8430343,6028293
10684284,-762884
494848,-8326052
9764972,-6061836
27682,500608
7086597,-5371997
2622811,46599
351068,6291646
5987572,2646016
6091904,338325
16023715,-7862999
8430343,6064133
10684399,-762593
522240,-8326051
208,-6061836
53288,566144
6892293,1253028
6948217,6942
358733,7471139
7949812,6976000
5108864,354930
16023716,-6617755
8430622,5020421
10755660,-766821
1989632,-8326068
6619189,-5996300
13669,2008192
3499269,8199844
6620469,34334
341325,-3669874
3493364,6670336
5108864,353703
16023716,7538021
8430622,5075717
10755775,-766489
2017024,-8326067
13631699,-5996300
54118,2008192
12020229,-1565020
6948294,61470
378446,-4784127
7950324,7211776
5239936,355851
16023716,7931246
8430623,5232645
10755882,-765992
2044416,-8326065
4391060,-5996300
26737,2073728
6844677,5447588
7406850,25375
377425,2097260
12734964,7806976
5371008,358176
16023716,-5569153
8430623,5548805
10755989,-764757
2073856,-8326059
11337947,-5996300
56193,2073728
14385413,-3792988
8455452,52767
334933,4522198
1857012,-8305408
5567616,360310
16023716,7734655
8430623,5535237
10756104,-765009
2101248,-8326061
1573102,-5996300
61051,2139264
8680709,3219620
7669181,14624
376145,-8126391
3297524,7303424
5305472,356209
16023716,3278191
8430624,5197317
10756210,-766130
2128640,-8326065
9109652,-5996300
35182,2139264
9006597,-6545244
7210257,44064
346704,1507508
4870388,7345920
5305472,356375
16023716,-5438095
8430624,5287173
10756317,-765779
2158080,-8326064
16122030,-5996300
44658,2139264
11432453,991652
7603694,5921
388688,1835039
15618292,7609344
5371008,357748
16023716,-719499
8430625,5371141
10756432,-765468
2185472,-8326063
6357030,-5996300
9848,2204800
9992453,7938468
7931319,33313
374610,-6815598
3036660,8192768
5633152,359683
16023716,3016061
8430625,5686533
10756539,-764219
2212608,-8326058
13893717,-5996300
24449,2204800
6258949,-1826396
8455613,62753
362838,-8257283
9000692,8290816
5698688,360066
16023716,394617
8430626,5637637
10756646,-764410
2242048,-8326060
4128958,-5996300
48756,2270336
12481541,5710500
7341445,24354
361810,2556008
8737524,7350016
5371008,355294
16023716,5309803
8430626,5329157
10756761,-765697
2269440,-8326064
11075625,-5996300
10604,2270336
9334533,-4054364
7275901,51746
359761,-7470885
14569972,7340032
5371008,356352
16023716,-2226832
8430626,5368325
10756868,-765462
2296832,-8326063
1835024,-5996300
15729,2335872
4026629,2958244
7406852,15651
355922,3080261
7230196,7483136
5436544,356911
16023716,-6421134
8430627,5479941
10756975,-765026
2326272,-8326061
8847602,-5996300
62067,2335872
15889157,-6282332
7800101,43043
337237,-393040
2446836,7862784
5764224,360179
16023716,-3537538
8430627,5753349
10757090,-763783
2353664,-8326056
15859962,-5996300
64129,2401408
15892485,730276
8390111,4900
384855,-917469
10704884,8359424
5764224,360334
16023716,-6093441
8430628,5700613
10757196,-764164
2381056,-8326058
6619229,-5996300
12408,2401408
3176453,7677092
7865826,34340
335955,3473550
2118644,7484672
5502080,356917
16023716,853357
8430628,5377285
10757303,-765427
2410496,-8326061
13631743,-5996300
65386,2401408
16738821,-1563484
6817109,61732
349523,5243129
5592052,6836224
5502080,353772
16023716,4588901
8430629,5457413
10757418,-765014
2437632,-8326061
3866740,-5996300
29801,2466944
15100933,5449124
7079188,23333
332884,-1703828
7296244,7481344
5567616,356904
16023716,7275890
8430629,5558533
10757525,-764719
2465024,-8326060
11403416,-5996300
43897,2466944
11237637,-4315740
7931208,52773
342103,3277015
3692532,8335872
5764224,360242
16023716,3933575
8430629,5848069
10757632,-763588
2494464,-8326055
1572957,-5996300
23949,2532480
6130949,3221156
9438630,14630
370265,-7798719
10902004,-7304960
5895296,364499
16023716,2360719
8430630,5841925
10757747,-763937
2521856,-8326057
8585386,-5996300
43659,2532480
6980357,-6543708
8586699,42022
379733,6946996
11293940,8210432
5567616,359752
16023716,-5503619
8430630,5510917
10757854,-764905
2549248,-8326060
16121890,-5996300
18808,2532480
4814853,468900
7865767,5927
385364,-4259809
14767348,8109824
5567616,359359
16023716,7538050
8430631,5600005
10757960,-764557
2578688,-8326059
6357098,-5996300
27272,2598016
6981637,8005540
8914348,33319
371797,3932298
11294196,-7848960
5698688,361519
16023716,-6486652
8430631,5676293
10758075,-764021
2606080,-8326057
13369490,-5996300
37506,2598016
7373573,-1824860
8586514,60711
332376,7340285
7625460,-8087552
5960832,361624
16023716,7603588
8430632,6023173
10758182,-762904
2633216,-8326053
4128860,-5996300
887,2663552
227077,5187748
7800287,24616
350811,6815848
5921780,7301120
6026368,356200
16023716,-5896850
8430632,5940741
10758289,-763226
2662656,-8326055
11141130,-5996300
2668,2663552
683013,-4052828
6686207,51752
393046,-4783917
16733940,6731520
5633152,352774
16023716,-5110430
8430632,5616133
10758404,-764415
2690048,-8326058
1310926,-5996300
52832,2729088
12673541,2959780
6423987,13609
373590,-4128698
12801780,6422784
5698688,352769
16023716,-3996318
8430633,5704965
10758511,-764147
2717440,-8326057
8847568,-5996300
7783,2729088
1992453,-6805084
6751494,43049
364375,-2359119
9394164,7068672
5764224,355292
16023716,3212656
8430633,5779717
10758618,-763855
2746880,-8326056
15859844,-5996300
33909,2729088
8680709,731812
8062299,4906
351066,4653083
5987060,8079104
6091904,360926
16023716,-6093439
8430634,6071045
10758733,-762496
2774272,-8326051
6095080,-5996300
59523,2794624
6586629,7744164
8455498,32298
346717,6553742
3825140,8341248
6157440,360263
16023716,3802495
8430634,6027013
10758839,-762889
2801664,-8326053
13631496,-5996300
39288,2794624
10057733,-2086236
7865739,61738
388183,-7864071
15489012,7440384
5764224,356744
16023716,394603
8430635,5703173
10758946,-764154
2831104,-8326057
3866789,-5996300
42344,2860160
10840069,5516196
6555106,23595
385623,852068
14833652,6556928
5829760,353486
16023716,2426212
8430635,5776645
10759061,-763838
2858240,-8326056
10878984,-5996300
2153,2860160
682501,-4314204
6948202,50987
354904,655575
14440692,6894848
5829760,354613
16023716,-2357911
8430635,5858565
10759168,-763547
2885632,-8326055
1638603,-5996300
17768,2925696
4548613,2698404
6817275,14892
338780,-3604414
2841844,7260416
6091904,356041
16023716,1705333
8430636,6167045
10759275,-762342
2915072,-8326050
8650788,-5996300
9336,2925696
2390021,-6542172
7800210,42028
365149,4915373
9592308,7817984
6157440,357504
16023716,656756
8430636,6097413
10759390,-762998
2942464,-8326053
15597772,-5996300
52335,2925696
15558917,470436
6882716,3885
367705,-1245152
4413684,6676992
5829760,353762
16023716,4392293
8430637,5783557
10759497,-763840
2969856,-8326056
6357145,-5996300
31591,2991232
8087301,7482788
6751633,33325
379736,-5439350
13326580,6860032
5829760,354477
16023716,-7862935
8430637,5801989
10759603,-763768
2999296,-8326055
13369591,-5996300
63337,2991232
16214277,-1757788
6948200,60717
354393,-2817803
6838772,7001344
5895296,355582
16023716,-1571476
8430638,5892101
10759718,-763344
3026688,-8326054
3604653,-5996300
44399,3056768
292101,5189284
7669059,22574
344923,262248
14179828,8218880
6157440,359785
16023716,-2620035
8430638,6209285
10759833,-762177
3058176,-8326050
11665467,-5996300
15234,3056768
3899909,-3461468
8258817,54062
328030,1769691
89844,8264448
6157440,358471
16023716,-7469704
8430638,6131205
10759948,-763007
3085568,-8326053
1900789,-5996300
62831,3122304
16738053,3551140
6751685,15919
378201,-65458
14768372,6552576
5829760,353276
16023716,-2030237
8430639,5856005
10760055,-763557
3112960,-8326055
9437206,-5996300
9319,3122304
2385669,-6279260
6751544,45359
330841,2490553
809460,6956544
5895296,354854
16023716,-4979345
8430639,5878789
10760162,-763468
3142400,-8326055
16449732,-5996300
50291,3187840
12874501,1257636
7865855,7216
393049,7864356
16734708,7895040
5960832,359732
16023716,-6683267
8430640,5937669
10760277,-762974
3169536,-8326053
6619204,-5996300
17538,3187840
14256389,8269988
8979870,34352
368221,-2555753
4284404,-7158016
6288512,365255
16023716,4261266
8430640,6323205
10760384,-761732
3196928,-8326048
14221367,-5996300
54162,3187840
13865477,-1494876
9569779,63792
347743,1114114
5136372,-7991040
6288512,362001
16023716,787832
8430641,6163461
10760491,-762356
3226368,-8326052
4390924,-5996300
3181,3253376
814341,6042020
6817217,25649
377178,655468
12671732,6818304
5895296,354221
16023716,-1768089
8430641,5891333
10760606,-763302
3253760,-8326054
11403359,-5996300
24424,3253376
14771461,-3722844
6620549,53041
361818,-2031393
9722612,6736896
5960832,353996
16023716,-7076506
8430642,5951237
10760713,-763185
3281152,-8326054
2162740,-5996300
361,3318912
92421,3289764
6882800,16946
350811,4784202
5921780,6899968
6026368,354633
16023716,2688359
8430642,6039813
10760819,-762839
3310592,-8326051
9175104,-5996300
16486,3318912
4220421,-5950812
6882786,44338
385631,-7470923
14835700,6917632
6354048,356226
16023716,-1637009
8430642,6350597
10760934,-761604
3337984,-8326048
16187484,-5996300
23665,3384448
16215813,996260
7275901,6195
359776,-589784
9592820,7432960
6288512,356715
16023716,-7207567
8430643,6165253
10761041,-762349
3365120,-8326050
6946849,-5996300
18539,3384448
4745989,8008612
7013851,35635
365658,-1507181
9722612,6744320
5960832,354025
16023716,6751590
8430643,5924613
10761148,-763289
3394560,-8326054
13959307,-5996300
35687,3384448
9135877,-1231964
6751508,62771
332891,-1507074
1334260,6809856
6026368,354466
16023716,5703016
8430644,5986053
10761263,-763066
3421952,-8326053
4129010,-5996300
62056,3449984
14313733,5780644
6882701,24628
363867,-2490255
5201140,6994432
6091904,355002
16023716,5178730
8430644,6095621
10761370,-762621
3449344,-8326051
11665423,-5996300
6002,3449984
1536517,-3984220
7472622,54068
382304,-5504804
13983988,7973888
6354048,358828
16023716,-7076482
8430644,6394885
10761477,-761452
3478784,-8326048
1900572,-5996300
7297,3515520
1868037,3552676
8455491,15925
344928,-2555834
4415732,-8267520
6288512,360941
16023716,6096257
8430645,6249733
10761592,-762446
3506176,-8326051
8912900,-5996300
1153,3515520
15695365,-6212188
8259036,43317
384091,-1113927
11033332,8140288
5960832,359478
16023716,-5765764
8430645,5974277
10761698,-763095
3533568,-8326053
16449785,-5996300
7289,3581056
1865989,734884
7931188,7222
332123,-3014620
1137652,7787008
6026368,358098
16023716,5178744
8430646,5984005
10761805,-763057
3563008,-8326053
6684785,-5996300
29048,3581056
7436293,8271524
7603635,34614
373595,-1572721
11754484,7661568
6091904,356589
16023716,2688368
8430646,6039813
10761920,-762670
3590144,-8326052
13697032,-5996300
2159,3581056
14052869,-1493340
7210243,62006
328543,-2752510
8282356,7220224
6354048,355884
16023716,8258926
8430647,6333701
10762027,-761691
3617536,-8326048
4456562,-5996300
43380,3646592
11105285,5519268
7603526,25911
377439,-6487955
12738548,7707904
6288512,357789
16023716,-2226829
8430647,6151685
10762134,-762402
3646976,-8326053
11468984,-5996300
47212,3646592
12086277,-3721308
6620526,53047
355930,-524072
7232244,6682624
5895296,353026
16023716,-260765
8430647,5897221
10762249,-763270
3674368,-8326054
1638547,-5996300
37732,3712128
13002245,3291300
6686071,14904
358234,-3801013
2251764,6937856
6026368,354781
16023716,2229609
8430648,6000901
10762356,-762991
3701760,-8326053
9175066,-5996300
7532,3712128
1928197,-6473564
7079402,44344
385371,5832885
14769140,6904064
6026368,354649
16023716,4457832
8430648,6046725
10762462,-762812
3731200,-8326052
16187620,-5996300
58476,3712128
14969861,1063332
7538080,6201
368735,-2621408
10510324,7591936
6354048,358086
16023716,-8387210
8430649,6324229
10762577,-761811
3758592,-8326048
6422730,-5996300
51828,3777664
7041541,8075684
7472505,33593
358751,7012499
13917940,7360256
6222976,356431
16023716,-2882192
8430649,6097669
10762684,-762613
3785984,-8326051
13959353,-5996300
51301,3777664
13133061,-1754716
6620595,63033
342873,-3473154
3889652,6474496
5895296,352971
16023716,-4520606
8430650,5880581
10762791,-763461
3815424,-8326054
4194536,-5996300
59492,3843200
15229957,5782180
6817162,24890
363098,8192105
9067252,6847744
5960832,355301
16023716,3343723
8430650,5911301
10762906,-763294
3842560,-8326054
11141221,-5996300
25968,3843200
6058757,-3982684
7538075,52026
367450,6029532
12475124,8240384
5960832,359869
16023716,-4323971
8430650,5987845
10763013,-763042
3869952,-8326053
1966328,-5996300
51605,3908736
13210885,3029924
9766150,15931
376671,-4915129
12541940,-6572800
6288512,367541
16023716,2098587
8430651,6299653
10763120,-761824
3899648,-8326049
8978452,-5996300
5270,3908736
1349125,-6210652
9176548,43579
386142,3866802
14966516,-7587072
6157440,360158
16023716,-6290050
8430651,6135813
10763235,-763051
3926784,-8326053
15925354,-5996300
27249,3974272
944389,801956
6882734,5180
372313,917541
6314484,6528256
5895296,353181
16023716,6292835
8430652,5862661
10763342,-763531
3954176,-8326055
6684835,-5996300
11871,3974272
3038981,7814308
6227333,34620
374105,3670160
11885044,6305792
5895296,352312
16023716,-7994014
8430652,5932549
10763449,-763258
3983616,-8326054
13697183,-5996300
40802,3974272
10445317,-1426268
6292776,62012
338010,983290
2644724,6295296
5960832,352189
16023716,-719521
8430653,5960965
10763564,-762992
4011008,-8326053
3932347,-5996300
47973,4039808
5729541,5586340
7144893,23869
376157,5701741
15949556,7513344
6222976,357029
16023716,-850574
8430653,6248965
10763670,-762022
4038144,-8326049
11469038,-5996300
3186,4039808
815621,-4244060
7472602,53309
367710,-6881064
10247924,7313152
6222976,356247
16023716,-6486676
8430653,6069509
10763777,-762723
4067584,-8326054
1704012,-5996300
19558,4105344
5006853,3292836
6423835,15166
334681,458819
1792500,6424320
5895296,352861
16023716,-5700254
8430654,5875973
10763892,-763552
4094976,-8326055
8650799,-5996300
12133,4105344
15426821,-6472028
6620559,42302
364377,-1376074
11622900,6773504
5895296,354139
16023716,-5175961
8430654,5862661
10763999,-763531
4122368,-8326055
16253158,-5996300
21866,4170880
5597701,540580
6948276,6207
338778,-4390879
2841332,7126272
5960832,355517
16023716,-6093457
8430655,5939973
10764106,-763229
4151808,-8326053
6422566,-5996300
9842,4170880
2519557,8077220
7734565,33599
337246,-3211125
2449140,7786240
6288512,358568
16023716,525688
8430655,6227973
10764221,-762192
4179200,-8326050
13435035,-5996300
39801,4170880
11040773,-1687644
7865847,60991
391005,-5766914
548340,7795968
6157440,358133
16023716,525686
8430656,5986565
10764327,-763047
4206592,-8326053
4194540,-5996300
30828,4236416
7891973,5324964
7079299,24896
339288,-3932055
2971892,7128064
5829760,355524
16023716,-2685585
8430656,5822213
10764434,-763689
4236032,-8326056
11206690,-5996300
8816,4236416
2256901,-3915612
7407038,52288
376408,4260052
12474612,7422208
5829760,356218
16023716,-3209873
8430656,5820165
10764549,-763635
4263424,-8326055
1441895,-5996300
26472,4301952
6383109,3031460
6685978,14145
334425,6357063
10312180,7145984
5895296,355594
16023716,-6486675
8430657,5909765
10764656,-763347
4290560,-8326054
8978507,-5996300
30837,4301952
7894277,-6733404
7669031,43585
388445,5767346
15556084,8083456
6157440,359256
16023716,1049984
8430657,6164485
10764763,-762352
4320000,-8326050
15925444,-5996300
50307,4301952
12878597,803492
8586672,5186
372829,-8257507
11558388,-8158720
6026368,360459
16023716,-1964672
8430658,6021637
10764878,-763508
4347392,-8326055
6160508,-5996300
31864,4367488
15232773,7815844
7275921,32578
364888,-1572720
15226868,7067136
5764224,355286
16023716,-1571477
8430658,5775621
10764985,-763871
4374784,-8326056
13697098,-5996300
46188,4367488
11824133,-1949020
7079225,62018
348760,-3014406
5396724,6869504
5829760,354514
16023716,-850587
8430659,5763845
10765091,-763917
4404224,-8326056
3932189,-5996300
7522,4433024
1925637,5587876
6751502,23875
331353,-5570459
940532,6793984
5895296,355699
16023716,4261229
8430659,5849349
10765206,-763426
4431616,-8326055
10944574,-5996300
15984,4433024
5666053,-4242524
7669086,51267
351836,5636312
15556084,7978496
6157440,358846
16023716,-1243783
8430659,6112005
10765313,-762557
4458752,-8326051
1704035,-5996300
5242,4498560
1341957,2770084
7996845,15172
385883,-7798717
14900212,7964928
6026368,358793
16023716,2033012
8430660,5906181
10765420,-763361
4488192,-8326057
8716446,-5996300
40556,4498560
10382341,-6470492
6882778,42564
383574,7733422
14309108,6911488
5764224,354668
16023716,3474793
8430660,5715205
10765535,-763957
4515584,-8326057
15663109,-5996300
1386,4564096
9792261,542116
7013860,4165
386135,-7012319
11622388,7108608
5764224,355448
16023716,-5175956
8430661,5742341
10765642,-764001
4542976,-8326057
6422674,-5996300
52333,4564096
13397253,7554468
7144772,33605
360792,4849804
8476916,7227904
5829760,355914
16023716,8062317
8430661,5798661
10765749,-763781
4572416,-8326054
13435095,-5996300
55151,4564096
14118661,-1686108
7734758,60997
386651,-2359050
15096820,7789568
6091904,359904
16023716,-4061827
8430662,6078981
10765864,-762799
4599808,-8326052
3670094,-5996300
20099,4629632
690437,5326500
8979897,22854
375131,655465
5593844,-7646208
5960832,363348
16023716,5571979
8430662,5761541
10765970,-763926
4627200,-8326057
11206761,-5996300
15761,4629632
4034821,-4503900
9504019,52294
358997,327892
8017396,-7076608
5633152,365573
16023716,1377689
8430662,5641477
10766077,-764395
4656640,-8326059
1441978,-5996300
47769,4695168
12228869,3032996
9766385,14151
389461,3080255
15816180,-7000320
5698688,364880
16023716,656785
8430663,5638661
10766192,-764459
4683776,-8326059
8454271,-5996300
32651,4695168
3703813,-6731868
8652033,41543
328022,3670194
11425524,7789824
5698688,358109
16023716,-5372554
8430663,5717765
10766299,-764097
4711168,-8326057
15990918,-5996300
